time,ch1,ch2,ch3
1.0,1.55,1.46,1.44
3.0,1.52,1.46,1.44
5.0,1.49,1.46,1.44
7.0,1.49,1.46,1.44
9.0,1.46,1.46,1.44
11.0,1.43,1.46,1.44
13.0,1.46,1.46,1.44
15.0,1.52,1.46,1.44
17.0,1.58,1.46,1.44
19.0,1.56,1.46,1.44
21.0,1.54,1.46,1.44
23.0,1.51,1.46,1.44
25.0,1.48,1.46,1.44
27.0,1.46,1.46,1.44
29.0,1.44,1.46,1.44
31.0,1.45,1.46,1.44
33.0,1.45,1.46,1.44
35.0,1.46,1.46,1.44
37.0,1.49,1.46,1.44
39.0,1.49,1.45,1.44
41.0,1.51,1.46,1.44
43.0,1.54,1.46,1.44
45.0,1.52,1.46,1.44
47.0,1.49,1.46,1.44
49.0,1.56,1.46,1.44
51.0,1.55,1.46,1.44
53.0,1.54,1.46,1.44
55.0,1.55,1.46,1.44
57.0,1.55,1.46,1.44
59.0,1.54,1.46,1.44
61.0,1.53,1.45,1.44
63.0,1.51,1.46,1.44
65.0,1.5,1.46,1.44
67.0,1.5,1.46,1.44
69.0,1.48,1.46,1.44
71.0,1.48,1.46,1.44
73.0,1.5,1.46,1.44
75.0,1.5,1.46,1.44
77.0,1.53,1.46,1.44
79.0,1.53,1.46,1.44
81.0,1.5,1.46,1.44
83.0,1.48,1.45,1.44
86.0,1.46,1.46,1.44
87.0,1.45,1.46,1.44
89.0,1.43,1.46,1.44
91.0,1.42,1.46,1.44
93.0,1.43,1.46,1.44
95.0,1.45,1.46,1.44
97.0,1.46,1.46,1.44
99.0,1.47,1.45,1.44
101.0,1.5,1.46,1.44
103.0,1.48,1.46,1.44
105.0,1.44,1.46,1.44
107.0,1.43,1.46,1.44
109.0,1.42,1.46,1.44
111.0,1.42,1.46,1.44
113.0,1.44,1.46,1.44
115.0,1.43,1.46,1.44
117.0,1.45,1.46,1.44
119.0,1.47,1.46,1.44
121.0,1.46,1.46,1.44
123.0,1.45,1.46,1.44
125.0,1.44,1.46,1.44
128.0,1.43,1.46,1.44
129.0,1.39,1.46,1.44
131.0,1.36,1.46,1.44
133.0,1.38,1.46,1.44
135.0,1.41,1.46,1.44
137.0,1.43,1.45,1.44
139.0,1.44,1.46,1.44
141.0,1.4,1.45,1.44
143.0,1.37,1.46,1.44
145.0,1.41,1.46,1.44
147.0,1.39,1.46,1.44
149.0,1.38,1.46,1.44
151.0,1.38,1.46,1.44
153.0,1.42,1.46,1.44
155.0,1.44,1.46,1.44
157.0,1.45,1.46,1.44
159.0,1.45,1.45,1.44
161.0,1.43,1.45,1.44
163.0,1.4,1.45,1.44
165.0,1.4,1.46,1.45
167.0,1.39,1.46,1.44
169.0,1.37,1.46,1.44
171.0,1.37,1.46,1.44
173.0,1.38,1.46,1.44
175.0,1.41,1.46,1.44
177.0,1.43,1.46,1.44
179.0,1.41,1.46,1.44
181.0,1.4,1.46,1.44
183.0,1.4,1.46,1.44
185.0,1.39,1.45,1.44
187.0,1.35,1.46,1.44
189.0,1.36,1.46,1.44
191.0,1.37,1.46,1.44
193.0,1.38,1.46,1.44
195.0,1.4,1.46,1.44
197.0,1.43,1.46,1.44
199.0,1.43,1.46,1.44
201.0,1.45,1.45,1.44
203.0,1.43,1.46,1.44
205.0,1.4,1.46,1.44
207.0,1.39,1.46,1.44
209.0,1.4,1.46,1.44
211.0,1.37,1.46,1.44
214.0,1.46,1.46,1.44
215.0,1.48,1.46,1.44
217.0,1.49,1.45,1.44
219.0,1.49,1.46,1.44
221.0,1.47,1.46,1.44
223.0,1.46,1.45,1.44
225.0,1.43,1.45,1.44
227.0,1.4,1.46,1.44
229.0,1.37,1.46,1.44
231.0,1.38,1.46,1.44
233.0,1.42,1.46,1.44
235.0,1.46,1.46,1.44
237.0,1.47,1.45,1.44
239.0,1.46,1.46,1.44
241.0,1.44,1.46,1.44
243.0,1.42,1.46,1.44
245.0,1.42,1.46,1.44
247.0,1.43,1.46,1.44
249.0,1.39,1.46,1.44
251.0,1.4,1.46,1.44
253.0,1.41,1.46,1.44
256.0,1.43,1.46,1.44
257.0,1.44,1.46,1.44
259.0,1.44,1.45,1.44
261.0,1.42,1.46,1.44
263.0,1.38,1.46,1.44
265.0,1.34,1.46,1.44
267.0,1.29,1.46,1.44
269.0,1.31,1.46,1.44
271.0,1.36,1.46,1.44
273.0,1.38,1.46,1.44
275.0,1.39,1.46,1.44
277.0,1.37,1.46,1.44
279.0,1.36,1.45,1.44
281.0,1.34,1.46,1.44
283.0,1.35,1.46,1.44
285.0,1.35,1.46,1.44
287.0,1.34,1.46,1.44
289.0,1.32,1.46,1.44
291.0,1.34,1.46,1.44
293.0,1.35,1.46,1.44
295.0,1.37,1.46,1.44
297.0,1.38,1.46,1.44
299.0,1.39,1.46,1.44
301.0,1.41,1.46,1.44
303.0,1.41,1.45,1.44
305.0,1.42,1.45,1.44
307.0,1.42,1.46,1.44
309.0,1.42,1.46,1.44
311.0,1.43,1.46,1.44
313.0,1.46,1.46,1.44
315.0,1.48,1.45,1.44
317.0,1.47,1.45,1.44
319.0,1.46,1.46,1.44
321.0,1.45,1.46,1.44
323.0,1.43,1.45,1.44
325.0,1.41,1.46,1.44
327.0,1.43,1.46,1.44
329.0,1.4,1.46,1.44
331.0,1.38,1.46,1.44
333.0,1.47,1.46,1.44
335.0,1.49,1.45,1.44
337.0,1.48,1.45,1.44
339.0,1.48,1.46,1.44
342.0,1.47,1.45,1.44
343.0,1.47,1.46,1.44
345.0,1.48,1.45,1.44
347.0,1.47,1.46,1.44
349.0,1.45,1.46,1.44
351.0,1.46,1.46,1.44
353.0,1.47,1.46,1.44
355.0,1.51,1.46,1.44
357.0,1.5,1.46,1.44
359.0,1.47,1.45,1.44
361.0,1.46,1.45,1.44
363.0,1.48,1.45,1.44
365.0,1.46,1.46,1.44
367.0,1.44,1.46,1.44
369.0,1.41,1.46,1.44
371.0,1.4,1.46,1.44
373.0,1.41,1.46,1.44
375.0,1.43,1.46,1.44
377.0,1.42,1.46,1.44
379.0,1.39,1.46,1.44
381.0,1.4,1.46,1.44
384.0,1.4,1.46,1.44
385.0,1.34,1.46,1.44
387.0,1.37,1.46,1.44
389.0,1.36,1.46,1.44
391.0,1.37,1.46,1.44
393.0,1.39,1.46,1.44
395.0,1.4,1.46,1.44
397.0,1.4,1.46,1.44
399.0,1.42,1.46,1.44
401.0,1.42,1.46,1.44
403.0,1.4,1.45,1.44
405.0,1.38,1.46,1.44
407.0,1.38,1.46,1.44
409.0,1.39,1.46,1.44
411.0,1.41,1.46,1.44
413.0,1.43,1.46,1.44
415.0,1.43,1.46,1.44
417.0,1.45,1.46,1.44
419.0,1.49,1.46,1.44
421.0,1.49,1.45,1.44
423.0,1.45,1.45,1.44
425.0,1.37,1.46,1.44
427.0,1.42,1.46,1.44
429.0,1.41,1.46,1.44
431.0,1.39,1.46,1.44
433.0,1.44,1.46,1.44
435.0,1.44,1.45,1.44
437.0,1.44,1.46,1.44
439.0,1.4,1.46,1.44
441.0,1.45,1.46,1.44
443.0,1.45,1.45,1.44
445.0,1.42,1.46,1.44
447.0,1.43,1.46,1.44
449.0,1.41,1.46,1.44
451.0,1.41,1.46,1.44
453.0,1.43,1.46,1.44
455.0,1.46,1.46,1.44
457.0,1.45,1.46,1.44
459.0,1.43,1.46,1.44
461.0,1.42,1.46,1.44
463.0,1.44,1.46,1.44
465.0,1.45,1.46,1.44
467.0,1.43,1.46,1.44
470.0,1.43,1.46,1.44
471.0,1.44,1.46,1.44
473.0,1.4,1.46,1.44
475.0,1.49,1.45,1.44
477.0,1.49,1.46,1.44
479.0,1.49,1.46,1.44
481.0,1.49,1.46,1.44
483.0,1.45,1.46,1.44
485.0,1.42,1.45,1.44
487.0,1.43,1.46,1.45
489.0,1.41,1.46,1.44
491.0,1.42,1.46,1.44
493.0,1.45,1.46,1.44
495.0,1.46,1.46,1.44
497.0,1.47,3.3,1.44
499.0,1.45,3.3,1.44
501.0,1.43,2.47,1.44
503.0,1.43,0.55,1.44
505.0,1.4,0.35,1.44
507.0,1.47,0.4,1.44
509.0,1.41,0.48,1.44
512.0,1.41,0.56,1.44
513.0,1.44,0.63,1.44
515.0,1.47,1.98,1.44
517.0,1.47,3.3,1.44
519.0,1.47,3.3,1.44
521.0,1.45,3.3,1.44
523.0,1.44,1.94,1.44
525.0,1.44,0.0,1.44
527.0,1.43,0.0,1.45
529.0,1.4,0.0,1.45
531.0,1.43,0.0,1.44
533.0,1.46,0.0,1.44
535.0,1.51,3.3,1.44
537.0,1.53,3.3,1.44
539.0,1.51,3.3,1.44
541.0,1.47,3.3,1.44
543.0,1.45,3.3,1.44
545.0,1.42,0.0,1.44
547.0,1.4,0.0,1.44
549.0,1.4,0.0,1.44
551.0,1.45,0.0,1.44
553.0,1.47,0.0,1.44
555.0,1.51,3.3,1.44
557.0,1.5,3.3,1.44
559.0,1.47,3.3,1.44
561.0,1.47,3.3,1.44
563.0,1.46,3.3,1.44
565.0,1.41,3.3,1.44
567.0,1.38,0.0,1.44
569.0,1.35,0.0,1.45
571.0,1.42,0.0,1.44
573.0,1.45,3.3,1.44
575.0,1.5,3.3,1.44
577.0,1.52,3.3,1.44
579.0,1.49,3.3,1.44
581.0,1.46,3.3,1.44
583.0,1.46,3.3,1.44
585.0,1.42,3.3,1.44
587.0,1.37,0.0,1.44
589.0,1.35,0.0,1.44
591.0,1.4,0.0,1.44
593.0,1.45,3.3,1.44
595.0,1.52,3.3,1.44
598.0,1.52,3.3,1.44
599.0,1.51,3.3,1.44
601.0,1.49,3.3,1.44
603.0,1.46,3.3,1.44
605.0,1.42,3.3,1.44
607.0,1.38,0.0,1.44
609.0,1.37,0.0,1.45
611.0,1.41,0.0,1.44
613.0,1.46,3.3,1.44
615.0,1.53,3.3,1.44
617.0,1.51,3.3,1.44
619.0,1.48,3.3,1.44
621.0,1.43,3.3,1.44
623.0,1.39,3.3,1.44
625.0,1.34,3.3,1.44
627.0,1.28,0.0,1.44
629.0,1.26,0.0,1.44
631.0,1.33,0.0,1.44
633.0,1.41,3.3,1.44
635.0,1.47,3.3,1.44
637.0,1.46,3.3,1.44
640.0,1.44,3.3,1.44
641.0,1.39,3.3,1.44
643.0,1.33,3.3,1.44
645.0,1.26,3.3,1.44
647.0,1.23,0.0,1.45
649.0,1.22,0.0,1.44
651.0,1.28,0.0,1.44
653.0,1.3,3.3,1.44
655.0,1.41,3.3,1.44
657.0,1.38,3.3,1.44
659.0,1.36,3.3,1.44
661.0,1.39,3.3,1.44
663.0,1.39,3.3,1.44
665.0,1.36,3.3,1.44
667.0,1.34,0.0,1.45
669.0,1.32,0.0,1.44
671.0,1.37,0.0,1.44
673.0,1.41,3.3,1.44
675.0,1.49,3.3,1.44
677.0,1.49,3.3,1.44
679.0,1.49,3.3,1.44
681.0,1.47,3.3,1.44
683.0,1.46,3.3,1.44
685.0,1.44,3.3,1.44
687.0,1.41,0.0,1.44
689.0,1.41,0.0,1.44
691.0,1.39,0.0,1.44
693.0,1.38,3.3,1.44
695.0,1.47,3.3,1.43
697.0,1.49,3.3,1.44
699.0,1.5,3.3,1.43
701.0,1.48,3.3,1.44
703.0,1.44,3.3,1.44
705.0,1.42,3.08,1.44
707.0,1.36,0.0,1.45
709.0,1.32,0.0,1.44
711.0,1.37,0.0,1.44
713.0,1.43,3.3,1.44
715.0,1.46,3.3,1.44
717.0,1.45,3.3,1.44
719.0,1.41,3.3,1.44
721.0,1.37,3.3,1.44
723.0,1.37,3.3,1.44
726.0,1.36,2.48,1.44
727.0,1.35,0.0,1.45
729.0,1.33,0.0,1.44
731.0,1.37,0.0,1.44
733.0,1.44,3.3,1.44
735.0,1.5,3.3,1.44
737.0,1.49,3.3,1.44
739.0,1.45,3.3,1.44
741.0,1.42,3.3,1.44
743.0,1.39,3.3,1.44
745.0,1.36,1.87,1.44
747.0,1.34,0.0,1.44
749.0,1.32,0.0,1.45
751.0,1.35,0.0,1.44
753.0,1.4,3.3,1.44
755.0,1.47,3.3,1.44
757.0,1.46,3.3,1.44
759.0,1.43,3.3,1.44
761.0,1.42,3.3,1.44
763.0,1.42,3.3,1.44
765.0,1.39,1.03,1.45
768.0,1.31,0.0,1.44
769.0,1.38,0.0,1.44
771.0,1.45,0.0,1.44
773.0,1.47,3.3,1.44
775.0,1.55,3.3,1.44
777.0,1.51,3.3,1.44
779.0,1.45,3.3,1.44
781.0,1.41,3.3,1.44
783.0,1.38,3.3,1.44
785.0,1.35,0.45,1.45
787.0,1.31,0.0,1.44
789.0,1.31,0.0,1.44
791.0,1.34,0.0,1.44
793.0,1.41,3.3,1.44
795.0,1.52,3.3,1.44
797.0,1.53,3.3,1.44
799.0,1.46,3.3,1.44
801.0,1.43,3.3,1.44
803.0,1.42,3.3,1.44
805.0,1.37,0.0,1.44
807.0,1.35,0.0,1.44
809.0,1.36,0.0,1.44
811.0,1.5,0.0,1.44
813.0,1.5,3.3,1.44
815.0,1.54,3.3,1.44
817.0,1.54,3.3,1.44
819.0,1.47,3.3,1.44
821.0,1.41,3.3,1.44
823.0,1.44,3.3,1.44
825.0,1.39,0.0,1.44
827.0,1.34,0.0,1.44
829.0,1.32,0.0,1.44
831.0,1.35,0.0,1.44
833.0,1.41,3.3,1.44
835.0,1.46,3.3,1.44
837.0,1.45,3.3,1.44
839.0,1.43,3.3,1.44
841.0,1.41,3.3,1.44
843.0,1.39,3.3,1.44
845.0,1.37,0.0,1.44
847.0,1.36,0.0,1.44
849.0,1.35,0.0,1.44
851.0,1.39,0.0,1.44
854.0,1.45,3.3,1.44
855.0,1.49,3.3,1.44
857.0,1.47,3.3,1.44
859.0,1.47,3.3,1.44
861.0,1.46,3.3,1.44
863.0,1.5,3.3,1.44
865.0,1.53,0.0,1.44
867.0,1.53,0.0,1.44
869.0,1.56,0.0,1.44
871.0,1.58,0.0,1.44
873.0,1.57,3.3,1.44
875.0,1.62,3.3,1.44
877.0,1.7,3.3,1.44
879.0,1.7,3.3,1.44
881.0,1.63,3.3,1.44
883.0,1.59,3.3,1.44
885.0,1.53,0.0,1.44
887.0,1.49,0.0,1.45
889.0,1.48,0.0,1.44
891.0,1.48,0.0,1.44
893.0,1.52,3.3,1.44
896.0,1.56,3.3,1.44
897.0,1.54,3.3,1.44
899.0,1.52,3.3,1.44
901.0,1.49,3.3,1.44
903.0,1.46,3.3,1.44
905.0,1.4,0.0,1.44
907.0,1.35,0.0,1.45
909.0,1.39,0.0,1.44
911.0,1.44,0.0,1.44
913.0,1.51,3.3,1.44
915.0,1.5,3.3,1.44
917.0,1.43,3.3,1.44
919.0,1.43,3.3,1.44
921.0,1.49,3.3,1.44
923.0,1.54,3.3,1.44
925.0,1.45,0.0,1.44
927.0,1.35,0.0,1.45
929.0,1.4,0.0,1.44
931.0,1.43,0.0,1.44
933.0,1.44,3.3,1.44
935.0,1.46,3.3,1.44
937.0,1.43,3.3,1.44
939.0,1.39,3.3,1.44
941.0,1.36,3.3,1.44
943.0,1.34,3.3,1.44
945.0,1.31,0.0,1.44
947.0,1.25,0.0,1.45
949.0,1.3,0.0,1.45
951.0,1.32,0.0,1.44
953.0,1.43,3.3,1.44
955.0,1.42,3.3,1.44
957.0,1.37,3.3,1.44
959.0,1.35,3.3,1.44
961.0,1.34,3.3,1.44
963.0,1.3,3.3,1.45
965.0,1.3,0.0,1.44
967.0,1.23,0.0,1.44
969.0,1.2,0.0,1.44
971.0,1.24,0.0,1.44
973.0,1.34,3.3,1.44
975.0,1.44,3.3,1.44
977.0,1.41,3.3,1.44
979.0,1.45,3.3,1.44
982.0,1.46,3.3,1.44
983.0,1.43,3.3,1.44
985.0,1.4,0.0,1.44
987.0,1.34,0.0,1.45
989.0,1.33,0.0,1.44
991.0,1.38,0.0,1.44
993.0,1.45,3.3,1.44
995.0,1.5,3.3,1.44
997.0,1.48,3.3,1.44
999.0,1.44,3.3,1.44
1001.0,1.38,3.3,1.44
1003.0,1.38,3.3,1.44
1005.0,1.35,0.0,1.44
1007.0,1.3,0.0,1.45
1009.0,1.32,0.0,1.44
1011.0,1.41,0.0,1.44
1013.0,1.48,3.3,1.44
1015.0,1.52,3.3,1.44
1017.0,1.49,3.3,1.44
1019.0,1.45,3.3,1.44
1021.0,1.42,3.3,1.44
1024.0,1.38,3.3,1.44
1025.0,1.38,0.0,1.44
1027.0,1.33,0.0,1.45
1029.0,1.34,0.0,1.44
1031.0,1.36,0.0,1.44
1033.0,1.4,3.3,1.44
1035.0,1.44,3.3,1.44
1037.0,1.44,3.3,1.44
1039.0,1.4,3.3,1.44
1041.0,1.33,3.3,1.44
1043.0,1.35,3.14,1.44
1045.0,1.34,0.0,1.44
1047.0,1.31,0.0,1.44
1049.0,1.33,0.0,1.44
1051.0,1.37,0.0,1.44
1053.0,1.44,3.3,1.44
1055.0,1.48,3.3,1.44
1057.0,1.45,3.3,1.44
1059.0,1.42,3.3,1.44
1061.0,1.38,3.3,1.44
1063.0,1.31,2.41,1.44
1065.0,1.36,0.0,1.44
1067.0,1.3,0.0,1.45
1069.0,1.33,0.0,1.44
1071.0,1.34,0.0,1.44
1073.0,1.41,3.3,1.44
1075.0,1.51,3.3,1.44
1077.0,1.53,3.3,1.44
1079.0,1.51,3.3,1.44
1081.0,1.48,3.3,1.44
1083.0,1.46,1.99,1.44
1085.0,1.44,0.0,1.44
1087.0,1.39,0.0,1.45
1089.0,1.41,0.0,1.44
1091.0,1.45,0.0,1.44
1093.0,1.5,3.3,1.44
1095.0,1.55,3.3,1.44
1097.0,1.51,0.0,1.44
1099.0,1.45,0.0,1.44
1101.0,1.44,0.0,1.44
1103.0,1.41,0.0,1.45
1105.0,1.38,0.0,1.45
1107.0,1.35,0.0,1.45
1110.0,1.34,0.0,1.45
1111.0,1.44,0.0,1.45
1113.0,1.49,0.0,1.44
1115.0,1.5,0.0,1.44
1117.0,1.48,0.0,1.44
1119.0,1.47,0.0,1.44
1121.0,1.46,0.0,1.44
1123.0,1.46,0.0,1.44
1125.0,1.46,0.0,1.45
1127.0,1.43,0.0,3.3
1129.0,1.42,0.0,2.99
1131.0,1.45,0.0,0.99
1133.0,1.5,0.0,0.71
1135.0,1.54,0.0,0.72
1137.0,1.52,0.0,0.77
1139.0,1.58,0.0,0.83
1141.0,1.59,0.0,0.88
1143.0,1.53,0.0,0.93
1145.0,1.51,0.0,0.97
1147.0,1.47,0.0,3.3
1149.0,1.49,0.0,3.3
1152.0,1.51,0.0,2.62
1153.0,1.58,0.0,0.0
1155.0,1.63,0.0,0.0
1157.0,1.6,0.0,0.0
1159.0,1.55,0.0,0.0
1161.0,1.5,0.0,0.0
1163.0,1.5,0.0,0.11
1165.0,1.52,0.0,3.3
1167.0,1.47,0.0,3.3
1169.0,1.51,0.0,3.3
1171.0,1.55,0.0,3.3
1173.0,1.59,0.0,0.0
1175.0,1.58,0.0,0.0
1177.0,1.67,0.0,0.0
1179.0,1.62,0.0,3.3
1181.0,1.54,0.0,3.3
1183.0,1.51,0.0,3.3
1185.0,1.49,0.0,3.3
1187.0,1.44,0.0,3.3
1189.0,1.45,0.0,3.3
1191.0,1.48,0.0,3.3
1193.0,1.53,0.0,3.3
1195.0,1.54,0.0,3.3
1197.0,1.5,0.0,3.3
1199.0,1.47,0.0,3.3
1201.0,1.47,0.0,3.3
1203.0,1.45,0.0,3.3
1205.0,1.43,0.0,3.3
1207.0,1.4,0.0,3.3
1209.0,1.43,0.0,3.3
1211.0,1.45,0.0,3.3
1213.0,1.51,0.0,3.3
1215.0,1.51,0.0,3.3
1217.0,1.49,0.0,3.3
1219.0,1.48,0.0,3.3
1221.0,1.42,0.0,3.3
1223.0,1.46,0.0,3.3
1225.0,1.49,0.0,3.3
1227.0,1.46,0.0,3.3
1229.0,1.48,0.0,3.3
1231.0,1.54,0.0,3.3
1233.0,1.6,0.0,3.3
1235.0,1.61,0.0,3.3
1238.0,1.59,0.0,3.3
1239.0,1.55,0.0,3.3
1241.0,1.51,0.0,3.3
1243.0,1.44,0.0,3.3
1245.0,1.42,0.09,3.3
1247.0,1.41,0.27,3.3
1249.0,1.41,0.45,3.3
1251.0,1.45,0.62,3.3
1253.0,1.53,0.77,3.3
1255.0,1.55,0.91,3.3
1257.0,1.54,1.04,3.3
1259.0,1.53,1.16,3.3
1261.0,1.51,1.28,3.3
1263.0,1.49,1.39,3.3
1265.0,1.48,1.48,3.3
1267.0,1.45,1.57,3.3
1269.0,1.46,1.66,3.3
1271.0,1.49,1.73,3.3
1273.0,1.53,1.8,3.3
1275.0,1.56,1.86,3.3
1277.0,1.57,1.92,3.3
1280.0,1.55,1.97,3.3
1281.0,1.52,2.02,3.3
1283.0,1.48,2.06,3.3
1285.0,1.47,2.1,3.3
1287.0,1.45,2.14,3.3
1289.0,1.47,2.17,3.3
1291.0,1.5,2.2,3.3
1293.0,1.55,2.22,3.3
1295.0,1.54,2.25,3.3
1297.0,1.51,2.26,3.3
1299.0,1.5,2.28,3.3
1301.0,1.5,2.3,3.3
1303.0,1.47,2.31,3.3
1305.0,1.45,2.33,3.3
1307.0,1.42,2.34,3.3
1309.0,1.44,2.34,3.3
1311.0,1.46,2.35,3.3
1313.0,1.49,2.35,3.3
1315.0,1.5,2.35,3.3
1317.0,1.5,2.35,3.3
1319.0,1.47,2.35,3.3
1321.0,1.47,2.35,3.3
1323.0,1.44,2.35,3.3
1325.0,1.43,2.35,3.3
1327.0,1.41,2.35,3.3
1329.0,1.42,2.34,3.3
1331.0,1.45,2.33,3.3
1333.0,1.51,2.32,3.3
1335.0,1.52,2.32,3.3
1337.0,1.5,2.31,3.3
1339.0,1.44,2.3,3.3
1341.0,1.47,2.29,3.3
1343.0,1.44,2.29,3.3
1345.0,1.37,2.28,3.3
1347.0,1.29,2.28,3.3
1349.0,1.32,2.27,3.3
1351.0,1.35,2.26,3.3
1353.0,1.41,2.25,3.3
1355.0,1.43,2.24,3.3
1357.0,1.42,2.23,3.3
1359.0,1.41,2.22,3.3
1361.0,1.41,2.21,3.1
1363.0,1.38,2.2,2.74
1366.0,1.39,2.19,2.38
1367.0,1.38,2.18,2.06
1369.0,1.42,2.17,1.79
1371.0,1.46,2.15,1.5
1373.0,1.48,2.14,1.23
1375.0,1.48,2.13,0.96
1377.0,1.5,2.12,0.67
1379.0,1.5,2.11,0.39
1381.0,1.49,2.1,0.15
1383.0,1.48,2.09,0.0
1385.0,1.46,2.08,0.0
1387.0,1.44,2.07,0.0
1389.0,1.46,2.06,0.0
1391.0,1.49,2.05,0.0
1393.0,1.55,2.04,0.0
1395.0,1.55,2.02,0.0
1397.0,1.54,2.01,0.0
1399.0,1.5,2.0,0.0
1401.0,1.46,1.99,0.0
1403.0,1.45,1.99,0.0
1405.0,1.43,1.98,0.0
1408.0,1.42,1.97,0.0
1409.0,1.46,1.96,0.0
1411.0,1.48,1.95,0.0
1413.0,1.51,1.94,0.0
1415.0,1.52,1.93,0.0
1417.0,1.5,1.92,0.0
1419.0,1.46,1.91,0.0
1421.0,1.45,1.9,0.0
1423.0,1.43,1.9,0.0
1425.0,1.38,1.89,0.0
1427.0,1.36,1.88,0.0
1429.0,1.4,1.87,0.0
1431.0,1.43,1.86,0.0
1433.0,1.47,1.85,0.0
1435.0,1.46,1.85,0.0
1437.0,1.43,1.84,0.0
1439.0,1.42,1.83,0.0
1441.0,1.41,1.82,0.0
1443.0,1.36,1.82,0.0
1445.0,1.34,1.81,0.0
1447.0,1.28,1.81,0.0
1449.0,1.29,1.8,0.0
1451.0,1.3,1.79,0.0
1453.0,1.36,1.78,0.0
1455.0,1.38,1.77,0.0
1457.0,1.37,1.76,0.0
1459.0,1.35,1.76,0.0
1461.0,1.34,1.75,0.0
1463.0,1.31,1.75,0.0
1465.0,1.25,1.75,0.0
1467.0,1.29,1.74,0.0
1469.0,1.35,1.74,0.0
1471.0,1.38,1.73,0.0
1473.0,1.43,1.72,0.0
1475.0,1.44,1.71,0.0
1477.0,1.44,1.71,0.0
1479.0,1.43,1.7,0.0
1481.0,1.43,1.7,0.0
1483.0,1.44,1.69,0.0
1485.0,1.5,1.68,0.0
1487.0,1.58,1.67,0.0
1489.0,1.64,1.66,0.0
1491.0,1.64,1.66,0.0
1494.0,1.68,1.65,0.0
1495.0,1.66,1.65,0.0
1497.0,1.59,1.64,0.0
1499.0,1.5,1.64,0.0
1501.0,1.47,1.64,0.0
1503.0,1.47,1.64,0.0
1505.0,1.44,1.64,0.0
1507.0,1.41,1.64,0.0
1509.0,1.41,1.63,0.0
1511.0,1.42,1.63,0.0
1513.0,1.44,3.3,0.0
1515.0,1.45,3.3,0.0
1517.0,1.46,3.3,0.0
1519.0,1.42,3.3,0.0
1521.0,1.4,1.72,0.0
1523.0,1.35,0.0,0.0
1525.0,1.3,0.0,0.0
1527.0,1.28,0.0,0.0
1529.0,1.32,0.0,0.0
1531.0,1.35,0.0,0.0
1533.0,1.39,3.3,0.0
1536.0,1.37,3.3,0.0
1537.0,1.35,3.3,0.0
1539.0,1.37,3.3,0.0
1541.0,1.35,3.3,0.0
1543.0,1.27,0.0,0.0
1545.0,1.28,0.0,0.0
1547.0,1.26,0.0,0.0
1549.0,1.3,0.0,0.0
1551.0,1.35,0.0,0.0
1553.0,1.43,3.3,0.0
1555.0,1.42,3.3,0.0
1557.0,1.38,3.3,0.0
1559.0,1.35,3.3,0.0
1561.0,1.35,0.0,0.0
1563.0,1.3,0.0,0.0
1565.0,1.27,0.0,0.0
1567.0,1.24,0.0,0.0
1569.0,1.29,0.0,0.0
1571.0,1.35,0.0,0.0
1573.0,1.39,0.0,0.0
1575.0,1.32,0.0,0.0
1577.0,1.39,0.0,0.0
1580.0,1.42,0.0,0.0
1581.0,1.39,0.0,0.0
1583.0,1.35,0.0,0.0
1585.0,1.31,0.0,0.0
1587.0,1.31,0.0,0.0
1589.0,1.37,0.0,0.0
1591.0,1.41,0.0,0.0
1593.0,1.4,0.0,0.0
1595.0,1.45,0.0,0.0
1597.0,1.48,0.0,0.0
1599.0,1.4,0.0,0.0
1601.0,1.37,0.0,0.0
1603.0,1.35,0.0,0.0
1605.0,1.3,0.0,0.0
1607.0,1.27,0.0,1.18
1609.0,1.3,0.0,0.0
1611.0,1.24,0.0,0.0
1613.0,1.43,0.11,0.0
1615.0,1.49,0.26,0.0
1617.0,1.44,0.4,0.12
1619.0,1.38,0.54,3.3
1622.0,1.36,0.67,3.3
1623.0,1.34,0.78,3.3
1625.0,1.32,0.89,3.3
1627.0,1.29,1.0,3.3
1629.0,1.3,1.09,3.3
1631.0,1.36,1.17,3.3
1633.0,1.41,1.25,3.3
1635.0,1.4,1.32,3.3
1637.0,1.38,1.38,3.3
1639.0,1.35,1.45,3.3
1641.0,1.28,1.51,3.3
1643.0,1.21,1.56,3.3
1645.0,1.37,1.61,3.3
1647.0,1.4,1.65,3.3
1649.0,1.43,1.69,3.3
1651.0,1.45,1.72,3.3
1653.0,1.48,1.75,3.3
1655.0,1.48,1.78,3.3
1657.0,1.47,1.81,3.3
1659.0,1.48,1.84,3.3
1661.0,1.45,1.86,3.3
1664.0,1.45,1.88,3.3
1665.0,1.49,1.89,3.3
1667.0,1.52,1.91,3.3
1669.0,1.53,1.92,3.3
1671.0,1.56,1.93,3.3
1673.0,1.64,1.94,3.3
1675.0,1.66,1.95,3.3
1677.0,1.63,1.95,3.3
1679.0,1.57,1.96,3.3
1681.0,1.55,1.96,3.3
1683.0,1.58,1.97,3.3
1685.0,1.54,1.97,3.3
1687.0,1.54,1.97,3.3
1689.0,1.58,1.97,3.3
1691.0,1.56,1.97,3.3
1693.0,1.59,1.97,3.3
1695.0,1.57,1.97,3.3
1697.0,1.46,1.97,3.3
1699.0,1.52,1.97,3.3
1701.0,1.61,1.96,3.3
1703.0,1.61,1.96,3.3
1705.0,1.54,1.96,3.3
1708.0,1.49,1.96,3.3
1709.0,1.59,1.95,3.3
1711.0,1.6,1.95,3.3
1713.0,1.6,1.94,3.3
1715.0,1.56,1.94,3.3
1717.0,1.59,1.93,3.3
1719.0,1.63,1.92,3.3
1721.0,1.61,1.92,3.3
1723.0,1.54,1.92,3.3
1725.0,1.49,1.91,3.3
1727.0,1.47,1.9,3.3
1729.0,1.53,1.9,3.3
1731.0,1.56,1.89,3.3
1733.0,1.6,1.88,3.3
1735.0,1.59,1.87,3.3
1737.0,1.58,1.87,3.3
1739.0,1.6,1.86,3.3
1741.0,1.62,1.86,3.3
1743.0,1.63,1.85,3.3
1745.0,1.71,1.85,3.3
1747.0,1.73,1.84,3.3
1750.0,1.75,1.84,3.3
1751.0,1.71,1.83,3.3
1753.0,1.68,1.82,3.3
1755.0,1.75,1.81,3.3
1757.0,1.69,1.81,3.3
1759.0,1.67,1.8,3.3
1761.0,1.79,1.79,3.3
1763.0,1.73,1.79,3.3
1765.0,1.65,1.78,3.3
1767.0,1.61,1.78,3.3
1769.0,1.59,1.77,3.3
1771.0,1.59,1.76,3.3
1773.0,1.62,1.76,3.3
1775.0,1.59,1.75,3.3
1777.0,1.59,1.75,3.3
1779.0,1.51,1.74,3.3
1781.0,1.48,1.74,3.16
1783.0,1.43,1.73,2.86
1785.0,1.45,1.73,2.58
1787.0,1.47,1.72,2.32
1789.0,1.48,1.72,2.06
1792.0,1.53,1.71,1.82
1793.0,1.57,1.7,1.59
1795.0,1.57,1.7,1.36
1797.0,1.57,1.69,1.16
1799.0,1.58,1.69,0.95
1801.0,1.58,1.68,0.77
1803.0,1.55,1.68,0.62
1805.0,1.53,1.68,0.53
1807.0,1.5,1.67,0.44
1809.0,1.54,1.67,0.32
1811.0,1.55,1.66,0.21
1813.0,1.52,1.66,0.1
1815.0,1.67,1.65,0.0
1817.0,1.85,1.65,0.0
1819.0,1.85,1.65,0.0
1821.0,1.83,1.65,0.0
1823.0,1.8,1.64,0.0
1825.0,1.68,1.64,0.0
1827.0,1.78,1.64,0.0
1829.0,1.82,1.63,0.0
1831.0,1.78,1.63,0.0
1833.0,1.81,1.62,0.0
1836.0,1.77,1.62,0.0
1837.0,1.71,1.61,0.0
1839.0,1.68,1.61,0.0
1841.0,1.65,1.61,0.0
1843.0,1.57,1.61,0.0
1845.0,1.68,1.6,0.0
1847.0,1.7,1.6,0.0
1849.0,1.67,1.6,0.0
1851.0,1.68,1.59,0.0
1853.0,1.69,1.59,0.0
1855.0,1.63,1.59,0.0
1857.0,1.57,1.58,0.0
1859.0,1.63,1.58,0.0
1861.0,1.65,1.58,0.0
1863.0,1.62,1.58,0.0
1865.0,1.6,1.58,0.0
1867.0,1.6,1.57,0.0
1869.0,1.66,1.57,0.0
1871.0,1.65,1.57,0.0
1873.0,1.6,1.56,0.0
1875.0,1.56,1.56,0.0
1878.0,1.51,1.56,0.0
1879.0,1.52,1.56,0.0
1881.0,1.52,1.56,0.0
1883.0,1.43,1.55,0.0
1885.0,1.37,1.55,0.0
1887.0,1.41,1.55,0.0
1889.0,1.43,1.55,0.0
1891.0,1.43,1.55,0.0
1893.0,1.49,1.54,0.0
1895.0,1.5,1.54,0.0
1897.0,1.45,1.54,0.0
1899.0,1.4,1.54,0.0
1901.0,1.35,1.54,0.0
1903.0,1.33,1.54,0.0
1905.0,1.32,1.54,0.0
1907.0,1.3,1.54,0.0
1909.0,1.31,1.53,0.0
1911.0,1.34,1.53,0.0
1913.0,1.39,1.53,0.0
1915.0,1.35,1.52,0.0
1917.0,1.32,1.52,0.0
1920.0,1.33,1.52,0.0
1921.0,1.31,1.52,0.0
1923.0,1.3,1.52,0.0
1925.0,1.33,1.52,0.0
1927.0,1.27,1.52,0.0
1929.0,1.36,1.52,0.0
1931.0,1.45,1.52,0.0
1933.0,1.38,1.51,0.0
1935.0,1.41,1.51,0.0
1937.0,1.44,1.51,0.0
1939.0,1.46,1.51,0.0
1941.0,1.46,1.51,0.11
1943.0,1.41,1.51,0.15
1945.0,1.47,1.51,0.17
1947.0,1.51,1.51,0.2
1949.0,1.53,1.51,0.22
1951.0,1.54,1.5,0.26
1953.0,1.42,1.5,0.27
1955.0,1.52,1.5,0.29
1957.0,1.55,1.5,0.31
1959.0,1.5,1.5,0.33
1961.0,1.42,1.5,0.35
1964.0,1.41,1.5,0.38
1965.0,1.52,1.5,0.43
1967.0,1.52,1.5,0.48
1969.0,1.46,1.5,0.51
1971.0,1.44,1.49,0.57
1973.0,1.4,1.49,0.63
1975.0,1.33,1.49,0.67
1977.0,1.36,1.49,0.69
1979.0,1.32,1.49,0.74
1981.0,1.25,1.49,0.74
1983.0,1.21,1.49,0.76
1985.0,1.16,1.49,0.78
1987.0,1.2,1.49,0.82
1989.0,1.24,1.49,0.87
1991.0,1.25,1.49,0.94
1993.0,1.22,1.49,0.97
1995.0,1.22,1.48,0.95
1997.0,1.17,1.48,0.95
1999.0,1.17,1.48,0.96
2001.0,1.19,1.48,0.96
2003.0,1.31,1.48,0.94
2006.0,1.29,1.48,0.93
2007.0,1.26,1.48,0.91
2009.0,1.27,1.48,0.89
2011.0,1.32,1.48,0.9
2013.0,1.31,1.48,0.85
2015.0,1.29,1.48,0.84
2017.0,1.24,1.48,0.8
2019.0,1.29,1.48,0.77
2021.0,1.23,1.48,0.75
2023.0,1.24,1.48,0.73
2025.0,1.28,1.48,0.74
2027.0,1.28,1.48,0.79
2029.0,1.27,1.48,0.81
2031.0,1.28,1.48,0.84
2033.0,1.3,1.47,0.88
2035.0,1.3,1.47,0.89
2037.0,1.3,1.47,0.85
2039.0,1.28,1.48,0.82
2041.0,1.27,1.47,0.81
2043.0,1.25,1.48,0.82
2045.0,1.26,1.48,0.79
2048.0,1.25,1.48,0.79
2049.0,1.28,1.48,0.79
2051.0,1.35,1.47,0.81
2053.0,1.39,1.47,0.79
2055.0,1.35,1.47,0.76
2057.0,1.36,1.47,0.75
2059.0,1.35,1.47,0.75
2061.0,1.3,1.47,0.75
2063.0,1.24,1.47,0.74
2065.0,1.26,1.47,0.75
2067.0,1.27,1.47,0.75
2069.0,1.31,1.47,0.76
2071.0,1.43,1.47,0.8
2073.0,1.42,1.47,0.81
2075.0,1.4,1.47,0.85
2077.0,1.43,1.47,0.86
2079.0,1.41,1.47,0.87
2081.0,1.32,1.47,0.84
2083.0,1.43,1.47,0.84
2085.0,1.41,1.47,0.86
2087.0,1.38,1.47,0.9
2089.0,1.35,1.47,0.91
2092.0,1.33,1.47,0.92
2093.0,1.36,1.47,0.92
2095.0,1.42,1.47,0.94
2097.0,1.41,1.47,0.99
2099.0,1.4,1.47,1.02
2101.0,1.38,1.47,1.01
2103.0,1.38,1.47,1.03
2105.0,1.38,1.47,1.04
2107.0,1.41,1.47,1.06
2109.0,1.42,1.47,1.11
2111.0,1.42,1.47,1.21
2113.0,1.44,1.46,1.34
2115.0,1.41,1.46,1.48
2117.0,1.39,1.46,1.54
2119.0,1.37,1.46,1.58
2121.0,1.35,1.46,1.63
2123.0,1.32,1.46,1.69
2125.0,1.4,1.47,1.69
2127.0,1.39,1.47,1.7
2129.0,1.43,1.46,1.72
2131.0,1.44,1.46,1.71
2134.0,1.4,1.46,1.66
2135.0,1.42,1.46,1.64
2137.0,1.45,1.46,1.63
2139.0,1.42,1.46,1.61
2141.0,1.37,1.46,1.57
2143.0,1.27,1.46,1.53
2145.0,1.27,1.46,1.49
2147.0,1.41,1.46,1.49
2149.0,1.38,1.46,1.5
2151.0,1.41,1.46,1.51
2153.0,1.38,1.46,1.5
2155.0,1.34,1.46,1.47
2157.0,1.3,1.46,1.44
2159.0,1.37,1.46,1.43
2161.0,1.45,1.46,1.41
2163.0,1.36,1.46,1.38
2165.0,1.4,1.46,1.36
2167.0,1.45,1.46,1.38
2169.0,1.51,1.46,1.38
2171.0,1.56,1.46,1.41
2173.0,1.52,1.46,1.38
2176.0,1.47,1.46,1.35
2177.0,1.45,1.46,1.32
2179.0,1.44,1.46,1.3
2181.0,1.41,1.46,1.28
2183.0,1.41,1.46,1.27
2185.0,1.42,1.46,1.27
2187.0,1.48,1.46,1.25
2189.0,1.48,1.46,1.24
2191.0,1.51,1.46,1.2
2193.0,1.52,1.46,1.17
2195.0,1.52,1.46,1.16
2197.0,1.56,1.46,1.15
2199.0,1.55,1.46,1.14
2201.0,1.51,1.46,1.14
2203.0,1.51,1.46,1.13
2205.0,1.51,1.46,1.14
2207.0,1.59,1.46,1.14
2209.0,1.63,1.46,1.14
2211.0,1.63,1.46,1.16
2213.0,1.65,1.46,1.14
2215.0,1.7,1.46,1.15
2217.0,1.68,1.46,1.17
2220.0,1.66,1.46,1.17
2221.0,1.64,1.46,1.17
2223.0,1.61,1.46,1.15
2225.0,1.57,1.46,1.13
2227.0,1.56,1.46,1.14
2229.0,1.51,1.46,1.14
2231.0,1.55,1.46,1.14
2233.0,1.58,1.46,1.11
2235.0,1.59,1.46,1.09
2237.0,1.52,1.46,1.08
2239.0,1.44,1.46,1.06
2241.0,1.37,1.46,1.02
2243.0,1.35,1.46,1.03
2245.0,1.43,1.46,0.99
2247.0,1.3,1.46,0.96
2249.0,1.37,1.46,0.99
2251.0,1.54,1.46,1.01
2253.0,1.44,1.46,1.03
2255.0,1.39,1.46,1.08
2257.0,1.42,1.46,0.98
2259.0,1.41,1.46,0.83
2262.0,1.41,1.46,0.78
2263.0,1.41,1.46,0.76
2265.0,1.37,1.46,0.88
2267.0,1.31,1.46,0.99
2269.0,1.27,1.46,1.05
2271.0,1.29,1.46,1.07
2273.0,1.27,1.46,1.08
2275.0,1.32,1.46,1.07
2277.0,1.24,1.46,1.05
2279.0,1.18,1.46,1.06
2281.0,1.18,1.46,1.07
2283.0,1.31,1.46,1.08
2285.0,1.39,1.46,1.08
2287.0,1.48,1.46,1.07
2289.0,1.64,1.46,1.06
2291.0,1.78,1.46,1.06
2293.0,1.84,1.46,1.08
2295.0,1.82,1.46,1.1
2297.0,1.92,1.46,1.13
2299.0,2.01,1.46,1.18
2301.0,1.97,1.46,1.19
2304.0,1.96,1.46,1.2
2305.0,1.95,1.46,1.21
2307.0,1.97,1.46,1.22
2309.0,2.07,1.46,1.2
2311.0,2.11,1.46,1.03
2313.0,2.1,1.46,0.94
2315.0,2.17,1.46,1.01
2317.0,2.24,1.46,1.05
2319.0,2.34,1.46,1.12
2321.0,2.39,1.46,1.13
2323.0,2.34,1.46,1.15
2325.0,2.2,1.46,1.16
2327.0,2.21,1.46,1.16
2329.0,2.29,1.46,1.15
2331.0,2.28,1.46,1.16
2333.0,2.26,1.46,1.19
2335.0,2.2,1.46,1.18
2337.0,2.15,1.46,1.19
2339.0,2.17,1.46,1.2
2341.0,2.24,1.46,1.21
2343.0,2.28,1.46,1.21
2345.0,2.19,1.46,1.22
2348.0,2.22,1.46,1.24
2349.0,2.2,1.46,1.24
2351.0,2.12,1.46,1.27
2353.0,1.94,1.46,1.25
2355.0,1.87,1.46,1.11
2357.0,1.92,1.46,0.87
2359.0,2.12,1.46,0.75
2361.0,2.25,1.46,0.7
2363.0,2.41,1.46,0.69
2365.0,2.45,1.46,0.69
2367.0,2.63,1.46,0.69
2369.0,2.81,1.46,0.72
2371.0,2.9,1.46,0.74
2373.0,3.17,1.46,0.78
2375.0,3.3,1.46,0.82
2377.0,3.3,1.46,0.84
2379.0,3.3,1.46,0.87
2381.0,3.3,1.46,0.88
2383.0,3.3,1.46,0.88
2385.0,3.3,1.46,0.9
2387.0,3.3,1.46,0.9
2390.0,3.3,1.46,0.91
2391.0,3.3,1.46,0.95
2393.0,3.3,1.46,0.98
2395.0,3.3,1.46,0.98
2397.0,3.3,1.46,1.0
2399.0,3.3,1.46,1.01
2401.0,3.3,1.46,1.03
2403.0,3.3,1.46,1.05
2405.0,3.3,1.46,1.06
2407.0,3.3,1.46,1.07
2409.0,3.3,1.46,1.11
2411.0,3.3,1.46,1.14
2413.0,3.3,1.46,1.17
2415.0,3.3,1.46,1.2
2417.0,3.3,1.46,1.17
2419.0,3.3,1.46,1.13
2421.0,3.3,1.46,1.14
2423.0,3.3,1.46,1.19
2425.0,3.3,1.46,1.18
2427.0,3.3,1.46,1.19
2429.0,3.3,1.46,1.18
2432.0,3.3,1.46,1.21
2434.0,3.3,1.46,1.24
2435.0,3.3,1.46,1.25
2437.0,3.3,1.46,1.24
2439.0,3.3,1.46,1.25
2441.0,3.3,1.46,1.27
2443.0,3.3,1.46,1.3
2445.0,3.3,1.46,1.34
2447.0,3.3,1.46,1.36
2449.0,3.3,1.46,1.38
2451.0,3.3,1.46,1.39
2453.0,3.3,1.46,1.39
2455.0,3.3,1.45,1.4
2457.0,3.3,1.46,1.44
2459.0,3.3,1.46,1.46
2461.0,3.3,1.46,1.48
2463.0,3.3,1.46,1.49
2465.0,3.3,1.46,1.52
2467.0,3.3,1.46,1.5
2469.0,3.3,1.46,1.51
2471.0,3.3,1.46,1.51
2473.0,3.3,1.46,1.49
2476.0,3.3,1.46,1.51
2477.0,3.3,1.46,1.5
2479.0,3.3,1.46,1.49
2481.0,3.3,1.46,1.47
2483.0,3.3,1.46,1.51
2485.0,3.3,1.46,1.54
2487.0,3.3,1.46,1.55
2489.0,3.3,1.46,1.56
2491.0,3.3,1.46,1.58
2493.0,3.3,1.45,1.55
2495.0,3.3,1.45,1.52
2497.0,3.3,1.45,1.5
2499.0,3.3,1.46,1.49
2501.0,3.3,1.46,1.45
2503.0,3.3,1.46,1.42
2505.0,3.3,1.46,1.44
2507.0,3.3,1.46,1.44
2509.0,3.3,1.46,1.45
2511.0,3.3,1.46,1.45
2513.0,3.3,1.46,1.43
2515.0,3.3,1.46,1.41
2518.0,3.3,1.46,1.42
2519.0,3.3,1.46,1.42
2521.0,3.3,1.46,1.43
2523.0,3.3,1.46,1.45
2525.0,3.3,1.46,1.51
2527.0,3.3,1.46,1.52
2529.0,3.3,1.46,1.52
2531.0,3.3,1.46,1.54
2533.0,3.3,1.46,1.59
2535.0,3.3,1.46,1.62
2537.0,3.3,1.46,1.66
2539.0,3.3,1.46,1.67
2541.0,3.3,1.46,1.66
2543.0,3.22,1.46,1.66
2545.0,2.94,1.46,1.68
2547.0,2.65,1.46,1.66
2549.0,2.43,1.46,1.65
2551.0,2.37,1.46,1.65
2553.0,2.06,1.46,1.63
2555.0,1.83,1.46,1.6
2557.0,1.52,1.46,1.61
2560.0,1.26,1.46,1.61
2562.0,1.17,1.46,1.6
2563.0,0.96,1.46,1.59
2565.0,0.88,1.46,1.61
2567.0,0.88,1.46,1.62
2569.0,0.77,1.46,1.61
2571.0,1.0,1.46,1.61
2573.0,1.11,1.46,1.59
2575.0,0.94,1.46,1.59
2577.0,0.82,1.46,1.59
2579.0,0.72,1.46,1.61
2581.0,0.58,1.46,1.62
2583.0,0.46,1.46,1.64
2585.0,0.46,1.46,1.62
2587.0,0.63,1.46,1.6
2589.0,0.92,1.46,1.6
2591.0,1.12,1.46,1.59
2593.0,1.1,1.46,1.56
2595.0,1.05,1.46,1.56
2597.0,0.97,1.46,1.56
2599.0,1.11,1.46,1.57
2601.0,0.95,1.46,1.57
2604.0,0.93,1.46,1.55
2605.0,0.94,1.46,1.53
2607.0,0.74,1.46,1.51
2609.0,0.65,1.46,1.53
2611.0,0.66,1.46,1.5
2613.0,0.52,1.46,1.5
2615.0,0.49,1.46,1.53
2617.0,0.39,1.46,1.56
2619.0,0.1,1.46,1.56
2621.0,0.0,1.46,1.55
2623.0,0.0,1.46,1.54
2625.0,0.0,1.46,1.55
2627.0,0.0,1.46,1.55
2629.0,0.0,1.46,1.53
2631.0,0.0,1.46,1.55
2633.0,0.0,1.46,1.51
2635.0,0.0,1.46,1.45
2637.0,0.0,1.46,1.39
2639.0,0.0,1.46,1.36
2641.0,0.0,1.46,1.36
2643.0,0.0,1.46,1.39
2646.0,0.0,1.46,1.36
2647.0,0.0,1.46,1.33
2649.0,0.0,1.46,1.34
2651.0,0.0,1.46,1.35
2653.0,0.0,1.46,1.32
2655.0,0.0,1.46,1.27
2657.0,0.0,1.46,1.27
2659.0,0.0,1.46,1.26
2661.0,0.0,1.46,1.22
2663.0,0.0,1.46,1.19
2665.0,0.0,1.46,1.16
2667.0,0.0,1.46,1.15
2669.0,0.0,1.46,1.13
2671.0,0.0,1.46,1.13
2673.0,0.0,1.45,1.11
2675.0,0.0,1.46,1.11
2677.0,0.0,1.45,1.13
2679.0,0.0,1.46,1.13
2681.0,0.0,1.46,1.1
2683.0,0.0,1.46,1.1
2685.0,0.0,1.46,1.12
2688.0,0.0,1.46,1.14
2690.0,0.0,1.45,1.17
2691.0,0.0,1.45,1.19
2693.0,0.0,1.45,1.19
2695.0,0.0,1.45,1.17
2697.0,0.0,1.45,1.18
2699.0,0.0,1.45,1.18
2701.0,0.0,1.45,1.2
2703.0,0.0,1.45,1.18
2705.0,0.0,1.46,1.09
2707.0,0.0,1.45,1.08
2709.0,0.0,1.45,1.08
2711.0,0.0,1.45,1.09
2713.0,0.0,1.45,1.1
2715.0,0.0,1.45,1.12
2717.0,0.0,1.45,1.15
2719.0,0.0,1.45,1.15
2721.0,0.0,1.45,1.16
2723.0,0.0,1.45,1.15
2725.0,0.0,1.45,1.16
2727.0,0.0,1.45,1.16
2729.0,0.0,1.45,1.19
2732.0,0.0,1.45,1.24
2733.0,0.0,1.45,1.29
2735.0,0.0,1.45,1.3
2737.0,0.0,1.45,1.35
2739.0,0.0,1.45,1.19
2741.0,0.0,1.45,1.1
2743.0,0.0,1.45,1.11
2745.0,0.0,1.45,1.15
2747.0,0.0,1.45,1.21
2749.0,0.0,1.45,1.25
2751.0,0.0,1.45,1.3
2753.0,0.0,1.45,1.34
2755.0,0.0,1.45,1.35
2757.0,0.0,1.45,1.36
2759.0,0.0,1.45,1.38
2761.0,0.0,1.45,1.41
2763.0,0.0,1.45,1.44
2765.0,0.0,1.45,1.45
2767.0,0.0,1.45,1.47
2769.0,0.0,1.45,1.52
2771.0,0.0,1.45,1.55
2774.0,0.0,1.45,1.57
2775.0,0.0,1.45,1.58
2777.0,0.0,1.45,1.61
2779.0,0.0,1.45,1.61
2781.0,0.0,1.45,1.6
2783.0,0.0,1.45,1.6
2785.0,0.0,1.45,1.62
2787.0,0.0,1.45,1.62
2789.0,0.0,1.45,1.66
2791.0,0.0,1.45,1.67
2793.0,0.0,1.45,1.66
2795.0,0.0,1.45,1.69
2797.0,0.0,1.45,1.71
2799.0,0.0,1.45,1.7
2801.0,0.0,1.45,1.69
2803.0,0.0,1.45,1.7
2805.0,0.0,1.45,1.7
2807.0,0.0,1.45,1.69
2809.0,0.0,1.45,1.68
2811.0,0.0,1.45,1.68
2813.0,0.0,1.45,1.66
2816.0,0.0,1.45,1.64
2818.0,0.0,1.45,1.61
2819.0,0.0,1.45,1.6
2821.0,0.0,1.45,1.59
2823.0,0.0,1.45,1.57
2825.0,0.0,1.45,1.57
2827.0,0.0,1.45,1.59
2829.0,0.0,1.45,1.62
2831.0,0.0,1.45,1.62
2833.0,0.0,1.45,1.61
2835.0,0.0,1.45,1.6
2837.0,0.0,1.45,1.59
2839.0,0.0,1.45,1.59
2841.0,0.0,1.45,1.59
2843.0,0.0,1.45,1.6
2845.0,0.0,1.45,1.61
2847.0,0.0,1.45,1.59
2849.0,0.0,1.45,1.61
2851.0,0.0,1.45,1.64
2853.0,0.0,1.45,1.62
2855.0,0.0,1.45,1.61
2857.0,0.0,1.45,1.6
2860.0,0.0,1.45,1.6
2861.0,0.0,1.45,1.59
2863.0,0.0,1.45,1.57
2865.0,0.0,1.45,1.59
2867.0,0.0,1.45,1.64
2869.0,0.0,1.45,1.65
2871.0,0.0,1.45,1.65
2873.0,0.0,1.45,1.67
2875.0,0.0,1.45,1.67
2877.0,0.0,1.45,1.65
2879.0,0.0,1.45,1.64
2881.0,0.0,1.45,1.65
2883.0,0.0,1.45,1.62
2885.0,0.0,1.45,1.65
2887.0,0.0,1.45,1.66
2889.0,0.0,1.45,1.68
2891.0,0.0,1.45,1.71
2893.0,0.0,1.45,1.7
2895.0,0.0,1.45,1.69
2897.0,0.0,1.45,1.64
2899.0,0.0,1.45,1.58
2902.0,0.0,1.45,1.54
2903.0,0.0,1.45,1.52
2905.0,0.0,1.45,1.52
2907.0,0.0,1.45,1.49
2909.0,0.0,1.45,1.52
2911.0,0.0,1.45,1.54
2913.0,0.0,1.45,1.57
2915.0,0.0,1.45,1.61
2917.0,0.0,1.45,1.56
2919.0,0.0,1.45,1.53
2921.0,0.0,1.45,1.54
2923.0,0.0,1.45,1.54
2925.0,0.0,1.45,1.55
2927.0,0.0,1.45,1.56
2929.0,0.0,1.45,1.58
2931.0,0.0,1.45,1.59
2933.0,0.0,1.45,1.61
2935.0,0.0,1.45,1.6
2937.0,0.0,1.45,1.61
2939.0,0.0,1.45,1.6
2941.0,0.0,1.45,1.55
2944.0,0.0,1.45,1.51
2946.0,0.0,1.45,1.49
2947.0,0.0,1.45,1.48
2949.0,0.0,1.45,1.47
2951.0,0.0,1.45,1.45
2953.0,0.0,1.45,1.44
2955.0,0.0,1.45,1.41
2957.0,0.0,1.45,1.39
2959.0,0.0,1.45,1.41
2961.0,0.0,1.45,1.42
2963.0,0.0,1.45,1.44
2965.0,0.0,1.46,1.44
2967.0,0.0,1.46,1.46
2969.0,0.0,1.45,1.46
2971.0,0.0,1.45,1.49
2973.0,0.0,1.45,1.48
2975.0,0.0,1.45,1.46
2977.0,0.0,1.45,1.44
2979.0,0.0,1.45,1.39
2981.0,0.0,1.45,1.38
2983.0,0.0,1.46,1.34
2985.0,0.0,1.46,1.32
2988.0,0.0,1.46,1.32
2989.0,0.0,1.46,1.32
2991.0,0.0,1.45,1.32
2993.0,0.0,1.45,1.28
2995.0,0.02,1.45,1.21
2997.0,0.05,1.45,1.19
2999.0,0.1,1.46,1.15
3001.0,0.25,1.46,1.11
3003.0,0.39,1.46,1.1
3005.0,0.52,1.46,1.1
3007.0,0.61,1.46,1.13
3009.0,0.64,1.46,1.18
3011.0,0.47,1.46,1.2
3013.0,0.43,1.45,1.24
3015.0,0.38,1.45,1.25
3017.0,0.23,1.46,1.28
3019.0,0.12,1.46,1.29
3021.0,0.0,1.46,1.32
3023.0,0.0,1.46,1.31
3025.0,0.0,1.46,1.34
3027.0,0.0,1.46,1.38
3030.0,0.0,1.46,1.42
3031.0,0.0,1.46,1.47
3033.0,0.09,1.46,1.49
3035.0,0.09,1.46,1.48
3037.0,0.0,1.46,1.49
3039.0,0.0,1.46,1.5
3041.0,0.0,1.46,1.48
3043.0,0.0,1.46,1.48
3045.0,0.17,1.46,1.48
3047.0,0.36,1.46,1.48
3049.0,0.45,1.46,1.51
3051.0,0.57,1.46,1.52
3053.0,0.67,1.46,1.53
3055.0,0.61,1.46,1.53
3057.0,0.68,1.46,1.49
3059.0,0.91,1.46,1.45
3061.0,0.82,1.46,1.44
3063.0,0.71,1.46,1.46
3065.0,0.84,1.46,1.43
3067.0,1.01,1.46,1.4
3069.0,1.15,1.46,1.37
3072.0,1.23,1.46,1.37
3074.0,0.86,1.46,1.36
3075.0,1.07,1.46,1.35
3077.0,1.31,1.46,1.34
3079.0,1.38,1.46,1.34
3081.0,1.43,1.46,1.37
3083.0,1.47,1.46,1.39
3085.0,1.53,1.46,1.43
3087.0,1.61,1.46,1.46
3089.0,1.45,1.46,1.47
3091.0,1.35,1.46,1.45
3093.0,1.19,1.46,1.42
3095.0,1.19,1.46,1.4
3097.0,1.43,1.46,1.4
3099.0,1.55,1.46,1.38
3101.0,1.62,1.46,1.37
3103.0,1.67,1.46,1.33
3105.0,1.65,1.46,1.3
3107.0,1.43,1.46,1.29
3109.0,1.46,1.46,1.3
3111.0,1.73,1.46,1.33
3113.0,1.91,1.46,1.39
3116.0,1.85,1.46,1.43
3117.0,1.56,1.46,1.45
3119.0,1.28,1.46,1.44
3121.0,1.28,1.46,1.43
3123.0,1.21,1.46,1.44
3125.0,1.2,1.46,1.47
3127.0,1.27,1.46,1.48
3129.0,1.31,1.46,1.5
3131.0,1.39,1.46,1.51
3133.0,1.46,1.46,1.53
3135.0,1.54,1.46,1.56
3137.0,1.62,1.46,1.57
3139.0,1.62,1.46,1.55
3141.0,1.66,1.46,1.53
3143.0,1.74,1.46,1.52
3145.0,1.83,1.46,1.5
3147.0,1.95,1.46,1.48
3149.0,2.01,1.46,1.49
3151.0,2.1,1.46,1.48
3153.0,2.05,1.46,1.49
3155.0,2.09,1.46,1.53
3158.0,2.11,1.46,1.53
3159.0,2.19,1.46,1.54
3161.0,2.32,1.46,1.55
3163.0,2.25,1.46,1.59
3165.0,1.96,1.46,1.62
3167.0,2.0,1.46,1.65
3169.0,2.2,1.46,1.66
3171.0,2.29,1.46,1.67
3173.0,2.45,1.46,1.68
3175.0,2.37,1.46,1.68
3177.0,2.45,1.46,1.66
3179.0,2.49,1.46,1.62
3181.0,2.41,1.46,1.59
3183.0,2.49,1.46,1.61
3185.0,2.4,1.46,1.6
3187.0,2.44,1.46,1.6
3189.0,2.87,1.46,1.63
3191.0,2.58,1.46,1.6
3193.0,2.35,1.46,1.58
3195.0,2.19,1.46,1.57
3197.0,2.29,1.46,1.61
3200.0,2.33,1.46,1.63
3202.0,2.39,1.46,1.64
3203.0,2.45,1.46,1.61
3205.0,2.55,1.46,1.62
3207.0,2.65,1.46,1.66
3209.0,2.75,1.46,1.71
3211.0,2.78,1.46,1.72
3213.0,2.78,1.46,1.68
3215.0,2.83,1.46,1.7
3217.0,2.86,1.46,1.73
3219.0,2.89,1.46,1.72
3221.0,2.83,1.46,1.68
3223.0,2.71,1.46,1.63
3225.0,2.65,1.46,1.61
3227.0,2.6,1.46,1.58
3229.0,2.62,1.46,1.58
3231.0,2.65,1.46,1.55
3233.0,2.68,1.46,1.56
3235.0,2.67,1.46,1.59
3237.0,2.68,1.46,1.63
3239.0,2.64,1.46,1.66
3241.0,2.57,1.46,1.68
3244.0,2.56,1.46,1.7
3245.0,2.55,1.46,1.74
3247.0,2.53,1.46,1.76
3249.0,2.53,1.46,1.75
3251.0,2.54,1.46,1.7
3253.0,2.52,1.46,1.66
3255.0,2.41,1.46,1.71
3257.0,2.35,1.46,1.75
3259.0,2.38,1.46,1.73
3261.0,2.43,1.46,1.7
3263.0,2.5,1.46,1.7
3265.0,2.47,1.46,1.72
3267.0,2.53,1.46,1.72
3269.0,2.56,1.46,1.73
3271.0,2.52,1.46,1.69
3273.0,2.51,1.46,1.66
3275.0,2.49,1.46,1.62
3277.0,2.43,1.46,1.59
3279.0,2.42,1.46,1.59
3281.0,2.46,1.46,1.6
3283.0,2.52,1.46,1.58
3286.0,2.5,1.46,1.58
3287.0,2.54,1.46,1.55
3289.0,2.57,1.46,1.52
3291.0,2.63,1.46,1.45
3293.0,2.72,1.46,1.4
3295.0,2.43,1.46,1.38
3297.0,2.28,1.46,1.35
3299.0,2.28,1.46,1.36
3301.0,2.39,1.46,1.37
3303.0,2.16,1.46,1.33
3305.0,2.09,1.46,1.28
3307.0,2.15,1.46,1.23
3309.0,2.45,1.46,1.22
3311.0,2.07,1.46,1.23
3313.0,2.33,1.46,1.21
3315.0,2.19,1.46,1.18
3317.0,1.96,1.46,1.21
3319.0,1.92,1.46,1.23
3321.0,1.93,1.46,1.23
3323.0,1.82,1.46,1.23
3325.0,1.78,1.46,1.21
3328.0,1.87,1.46,1.24
3330.0,1.96,1.46,1.3
3331.0,1.98,1.46,1.34
3333.0,1.95,1.46,1.35
3335.0,1.94,1.46,1.39
3337.0,1.92,1.46,1.42
3339.0,1.89,1.46,1.45
3341.0,1.91,1.46,1.49
3343.0,1.85,1.46,1.53
3345.0,1.81,1.46,1.56
3347.0,1.81,1.46,1.58
3349.0,1.92,1.46,1.59
3351.0,1.9,1.46,1.6
3353.0,1.84,1.46,1.56
3355.0,1.95,1.46,1.54
3357.0,1.95,1.46,1.5
3359.0,2.02,1.46,1.41
3361.0,2.0,1.46,1.42
3363.0,1.89,1.46,1.48
3365.0,1.76,1.46,1.5
3367.0,1.85,1.46,1.51
3369.0,1.9,1.46,1.51
3372.0,1.89,1.46,1.48
3373.0,1.95,1.46,1.44
3375.0,1.92,1.46,1.42
3377.0,1.95,1.46,1.43
3379.0,1.96,1.46,1.43
3381.0,1.95,1.46,1.47
3383.0,1.95,1.46,1.46
3385.0,1.94,1.46,1.47
3387.0,1.99,1.46,1.49
3389.0,2.06,1.46,1.51
3391.0,2.1,1.46,1.55
3393.0,1.91,1.46,1.57
3395.0,1.78,1.46,1.57
3397.0,1.88,1.46,1.54
3399.0,1.93,1.46,1.53
3401.0,2.01,1.46,1.5
3403.0,1.93,1.46,1.53
3405.0,1.79,1.46,1.56
3407.0,1.79,1.46,1.55
3409.0,1.88,1.46,1.54
3411.0,1.87,1.46,1.51
3414.0,1.85,1.46,1.49
3415.0,1.84,1.46,1.47
3417.0,1.84,1.46,1.47
3419.0,1.84,1.46,1.41
3421.0,1.85,1.46,1.39
3423.0,1.81,1.46,1.4
3425.0,1.78,1.46,1.47
3427.0,1.79,1.46,1.56
3429.0,1.8,1.46,1.64
3431.0,1.78,1.46,1.66
3433.0,1.77,1.45,1.67
3435.0,1.77,1.46,1.68
3437.0,1.7,1.46,1.69
3439.0,1.67,1.46,1.68
3441.0,1.68,1.46,1.7
3443.0,1.68,1.46,1.72
3445.0,1.7,1.46,1.74
3447.0,1.73,1.46,1.74
3449.0,1.76,1.46,1.73
3451.0,1.75,1.46,1.68
3453.0,1.74,1.46,1.64
3456.0,1.69,1.46,1.62
3458.0,1.61,1.46,1.6
3459.0,1.57,1.46,1.6
3461.0,1.55,1.46,1.57
3463.0,1.53,1.46,1.52
3465.0,1.54,1.46,1.42
3467.0,1.57,1.46,1.36
3469.0,1.6,1.46,1.33
3471.0,1.59,1.46,1.27
3473.0,1.61,1.46,1.23
3475.0,1.6,1.46,1.21
3477.0,1.56,1.46,1.22
3479.0,1.5,1.46,1.23
3481.0,1.47,1.46,1.24
3483.0,1.48,1.46,1.24
3485.0,1.52,1.46,1.25
3487.0,1.53,1.46,1.25
3489.0,1.54,1.46,1.26
3491.0,1.53,1.45,1.26
3493.0,1.51,1.46,1.27
3495.0,1.5,1.46,1.27
3497.0,1.47,1.46,1.24
3500.0,1.42,1.46,1.23
3501.0,1.4,1.46,1.2
3503.0,1.41,1.46,1.19
3505.0,1.44,1.46,1.18
3507.0,1.47,1.46,1.2
3509.0,1.5,1.46,1.22
3511.0,1.46,1.46,1.21
3513.0,1.47,1.46,1.18
3515.0,1.46,1.46,1.15
3517.0,1.46,1.46,1.05
3519.0,1.49,1.46,0.99
3521.0,1.53,1.46,0.98
3523.0,1.49,1.46,0.99
3525.0,1.5,1.46,1.01
3527.0,1.57,1.46,0.97
3529.0,1.62,1.46,1.0
3531.0,1.63,1.45,0.99
3533.0,1.62,1.46,0.95
3535.0,1.62,1.46,0.98
3537.0,1.62,1.46,1.0
3539.0,1.62,1.46,1.01
3542.0,1.61,1.46,1.03
3543.0,1.61,1.46,1.02
3545.0,1.64,1.46,1.03
3547.0,1.64,1.46,1.02
3549.0,1.64,1.46,1.03
3551.0,1.59,1.45,1.08
3553.0,1.61,1.46,1.11
3555.0,1.59,1.46,1.15
3557.0,1.6,1.46,1.18
3559.0,1.61,1.46,1.17
3561.0,1.64,1.46,1.15
3563.0,1.63,1.46,1.17
3565.0,1.53,1.46,1.21
3567.0,1.52,1.46,1.24
3569.0,1.54,1.45,1.22
3571.0,1.57,1.46,1.17
3573.0,1.55,1.45,1.16
3575.0,1.53,1.46,1.16
3577.0,1.51,1.46,1.15
3579.0,1.5,1.46,1.15
3581.0,1.49,1.46,1.15
3584.0,1.49,1.46,1.15
3586.0,1.52,1.46,1.17
3587.0,1.54,1.46,1.21
3589.0,1.56,1.46,1.24
3591.0,1.55,1.45,1.27
3593.0,1.52,1.45,1.24
3595.0,1.5,1.46,1.19
3597.0,1.47,1.46,1.18
3599.0,1.46,1.46,1.18
3601.0,1.46,1.46,1.16
3603.0,1.47,1.46,1.18
3605.0,1.47,1.46,1.22
3607.0,1.48,1.46,1.25
3609.0,1.52,1.46,1.33
3611.0,1.51,1.46,1.36
3613.0,1.49,1.46,1.36
3615.0,1.48,1.46,1.31
3617.0,1.46,1.46,1.32
3619.0,1.44,1.46,1.29
3621.0,1.42,1.46,1.32
3623.0,1.42,1.46,1.35
3625.0,1.46,1.46,1.38
3628.0,1.51,1.46,1.39
3629.0,1.55,1.46,1.4
3631.0,1.57,1.45,1.38
3633.0,1.56,1.46,1.39
3635.0,1.54,1.46,1.38
3637.0,1.53,1.46,1.38
3639.0,1.53,1.46,1.4
3641.0,1.51,1.46,1.47
3643.0,1.5,1.46,1.55
3645.0,1.52,1.46,1.55
3647.0,1.55,1.46,1.57
3649.0,1.56,1.45,1.6
3651.0,1.55,1.45,1.61
3653.0,1.55,1.46,1.6
3655.0,1.55,1.45,1.6
3657.0,1.54,1.46,1.62
3659.0,1.54,1.46,1.61
3661.0,1.54,1.46,1.61
3663.0,1.55,1.46,1.59
3665.0,1.58,1.46,1.54
3667.0,1.61,1.46,1.52
3670.0,1.63,1.45,1.47
3671.0,1.63,1.46,1.43
3673.0,1.61,1.46,1.41
3675.0,1.61,1.46,1.42
3677.0,1.61,1.46,1.4
3679.0,1.61,1.46,1.4
3681.0,1.61,1.46,1.42
3683.0,1.62,1.46,1.42
3685.0,1.62,1.46,1.41
3687.0,1.65,1.46,1.42
3689.0,1.66,1.46,1.45
3691.0,1.62,1.45,1.44
3693.0,1.62,1.45,1.43
3695.0,1.6,1.45,1.42
3697.0,1.58,1.46,1.45
3699.0,1.57,1.46,1.48
3701.0,1.58,1.46,1.49
3703.0,1.59,1.46,1.48
3705.0,1.64,1.46,1.45
3707.0,1.75,1.46,1.47
3709.0,1.82,1.46,1.46
3712.0,1.85,1.46,1.45
3714.0,1.88,1.45,1.43
3715.0,1.93,1.46,1.44
3717.0,1.95,1.46,1.45
3719.0,1.95,1.46,1.45
3721.0,1.92,1.46,1.45
3723.0,1.92,1.46,1.47
3725.0,1.9,1.46,1.49
3727.0,1.85,1.46,1.5
3729.0,1.83,1.46,1.46
3731.0,1.8,1.45,1.46
3733.0,1.77,1.45,1.47
3735.0,1.75,1.46,1.47
3737.0,1.72,1.46,1.42
3739.0,1.69,1.46,1.41
3741.0,1.65,1.46,1.41
3743.0,1.63,1.46,1.39
3745.0,1.64,1.46,1.41
3747.0,1.64,1.46,1.45
3749.0,1.64,1.46,1.45
3751.0,1.63,1.45,1.44
3753.0,1.62,1.45,1.43
3756.0,1.6,1.46,1.45
3757.0,1.57,1.46,1.45
3759.0,1.55,1.46,1.45
3761.0,1.52,1.46,1.45
3763.0,1.53,1.46,1.44
3765.0,1.56,1.46,1.38
3767.0,1.63,1.46,1.41
3769.0,1.66,1.45,1.45
3771.0,1.61,1.45,1.49
3773.0,1.57,1.45,1.49
3775.0,1.55,1.46,1.46
3777.0,1.53,1.46,1.49
3779.0,1.5,1.46,1.47
3781.0,1.5,1.46,1.49
3783.0,1.49,1.46,1.44
3785.0,1.48,1.46,1.39
3787.0,1.49,1.46,1.39
3789.0,1.52,1.45,1.37
3791.0,1.52,1.45,1.35
3793.0,1.52,1.45,1.34
3795.0,1.5,1.45,1.37
3798.0,1.5,1.46,1.42
3800.0,1.5,1.46,1.44
3801.0,1.48,1.46,1.43
3803.0,1.51,1.46,1.42
3805.0,1.52,1.46,1.45
3807.0,1.54,1.46,1.46
3809.0,1.56,1.46,1.45
3811.0,1.56,1.45,1.43
3813.0,1.54,1.45,1.41
3815.0,1.52,1.45,1.4
3817.0,1.49,1.46,1.39
3819.0,1.48,1.46,1.41
3821.0,1.47,1.46,1.37
3823.0,1.48,1.46,1.36
3825.0,1.48,1.46,1.39
3827.0,1.52,1.46,1.42
3829.0,1.52,1.45,1.43
3831.0,1.5,1.45,1.41
3833.0,1.48,1.46,1.38
3835.0,1.46,1.46,1.35
3837.0,1.45,1.46,1.34
3840.0,1.42,1.46,1.32
3842.0,1.42,1.46,1.3
3843.0,1.42,1.46,1.31
3845.0,1.44,1.46,1.31
3847.0,1.46,1.46,1.34
3849.0,1.48,1.45,1.3
3851.0,1.47,1.45,1.31
3853.0,1.46,1.45,1.31
3855.0,1.46,1.46,1.3
3857.0,1.46,1.46,1.3
3859.0,1.45,1.46,1.29
3861.0,1.43,1.46,1.26
3863.0,1.44,1.46,1.27
3865.0,1.46,1.46,1.27
3867.0,1.48,1.46,1.3
3869.0,1.47,1.45,1.3
3871.0,1.46,1.45,1.27
3873.0,1.43,1.46,1.23
3875.0,1.41,1.46,1.24
3877.0,1.39,1.46,1.22
3879.0,1.4,1.46,1.22
3881.0,1.4,1.46,1.25
3884.0,1.41,1.46,1.27
3885.0,1.45,1.46,1.3
3887.0,1.47,1.46,1.32
3889.0,1.48,1.46,1.3
3891.0,1.46,1.45,1.3
3893.0,1.45,1.45,1.29
3895.0,1.44,1.45,1.28
3897.0,1.43,1.46,1.26
3899.0,1.44,1.46,1.23
3901.0,1.42,1.46,1.22
3903.0,1.42,1.46,1.21
3905.0,1.44,1.46,1.22
3907.0,1.46,1.46,1.25
3909.0,1.47,1.46,1.25
3911.0,1.47,1.46,1.27
3913.0,1.47,1.45,1.25
3915.0,1.46,1.46,1.23
3917.0,1.45,1.46,1.23
3919.0,1.45,1.46,1.26
3921.0,1.44,1.46,1.31
3923.0,1.45,1.46,1.35
3926.0,1.47,1.46,1.39
3928.0,1.51,1.46,1.39
3929.0,1.5,1.45,1.36
3931.0,1.48,1.45,1.38
3933.0,1.46,1.45,1.4
3935.0,1.45,1.46,1.42
3937.0,1.44,1.46,1.41
3939.0,1.45,1.46,1.4
3941.0,1.46,1.46,1.4
3943.0,1.47,1.46,1.41
3945.0,1.47,1.46,1.45
3947.0,1.49,1.46,1.47
3949.0,1.46,1.45,1.48
3951.0,1.44,1.45,1.51
3953.0,1.42,1.46,1.52
3955.0,1.4,1.46,1.49
3957.0,1.37,1.46,1.45
3959.0,1.36,1.46,1.45
3961.0,1.35,1.46,1.42
3963.0,1.36,1.46,1.42
3965.0,1.37,1.46,1.44
3968.0,1.4,1.46,1.46
3970.0,1.41,1.45,1.49
3971.0,1.4,1.45,1.5
3973.0,1.38,1.45,1.49
3975.0,1.37,1.45,1.46
3977.0,1.37,1.46,1.45
3979.0,1.39,1.46,1.45
3981.0,1.38,1.46,1.43
3983.0,1.37,1.46,1.43
3985.0,1.4,1.46,1.42
3987.0,1.43,1.46,1.44
3989.0,1.46,1.45,1.45
3991.0,1.48,1.45,1.46
3993.0,1.44,1.46,1.47
3995.0,1.42,1.45,1.49
3997.0,1.39,1.46,1.47
3999.0,1.39,1.46,1.47
4001.0,1.38,1.46,1.46
4003.0,1.4,1.46,1.44
4005.0,1.42,1.46,1.47
4007.0,1.44,1.46,1.49
4009.0,1.46,1.45,1.49
4012.0,1.47,1.45,1.49
4013.0,1.46,1.45,1.48
4015.0,1.42,1.46,1.47
4017.0,1.43,1.46,1.46
4019.0,1.41,1.46,1.45
4021.0,1.41,1.46,1.46
4023.0,1.43,1.46,1.47
4025.0,1.45,1.46,1.5
4027.0,1.48,1.45,1.52
4029.0,1.5,1.45,1.51
4031.0,1.5,1.45,1.51
4033.0,1.51,1.45,1.51
4035.0,1.5,1.46,1.53
4037.0,1.47,1.46,1.55
4039.0,1.46,1.46,1.55
4041.0,1.46,1.46,1.55
4043.0,1.5,1.46,1.58
4045.0,1.52,1.46,1.58
4047.0,1.53,1.46,1.58
4049.0,1.53,1.46,1.58
4051.0,1.52,1.45,1.57
4054.0,1.52,1.45,1.56
4056.0,1.51,1.46,1.55
4057.0,1.51,1.46,1.53
4059.0,1.5,1.46,1.54
4061.0,1.49,1.46,1.55
4063.0,1.49,1.46,1.56
4065.0,1.51,1.46,1.58
4067.0,1.54,1.46,1.59
4069.0,1.55,1.45,1.56
4071.0,1.53,1.45,1.55
4073.0,1.5,1.45,1.55
4075.0,1.52,1.46,1.55
4077.0,1.5,1.46,1.55
4079.0,1.5,1.46,1.56
4081.0,1.49,1.46,1.56
4083.0,1.52,1.46,1.59
4085.0,1.55,1.46,1.59
4087.0,1.56,1.46,1.61
4089.0,1.55,1.45,1.62
4091.0,1.54,1.45,1.64
4093.0,1.53,1.46,1.64
4096.0,1.51,1.46,1.62
4098.0,1.49,1.46,1.6
4099.0,1.48,1.46,1.6
4101.0,1.47,1.46,1.58
4103.0,1.49,1.46,1.58
4105.0,1.5,1.46,1.56
4107.0,1.52,1.46,1.54
4109.0,1.52,1.46,1.53
4111.0,1.5,1.46,1.54
4113.0,1.48,1.46,1.52
4115.0,1.48,1.46,1.51
4117.0,1.46,1.46,1.5
4119.0,1.45,1.46,1.52
4121.0,1.42,1.46,1.52
4123.0,1.43,1.46,1.54
4125.0,1.46,1.46,1.55
4127.0,1.49,1.46,1.58
4129.0,1.49,1.45,1.59
4131.0,1.5,1.46,1.58
4133.0,1.48,1.46,1.57
4135.0,1.48,1.46,1.57
4137.0,1.47,1.46,1.55
4140.0,1.47,1.46,1.54
4141.0,1.48,1.46,1.52
4143.0,1.48,1.46,1.51
4145.0,1.48,1.46,1.54
4147.0,1.5,1.45,1.55
4149.0,1.54,1.45,1.55
4151.0,1.54,1.46,1.55
4153.0,1.52,1.46,1.56
4155.0,1.51,1.46,1.54
4157.0,1.5,1.46,1.49
4159.0,1.49,1.46,1.46
4161.0,1.46,1.46,1.45
4163.0,1.48,1.46,1.46
4165.0,1.5,1.46,1.5
4167.0,1.52,1.46,1.52
4169.0,1.51,1.45,1.52
4171.0,1.51,1.46,1.51
4173.0,1.51,1.46,1.49
4175.0,1.51,1.46,1.47
4177.0,1.49,1.46,1.49
4179.0,1.48,1.46,1.52
4182.0,1.47,1.46,1.53
4184.0,1.48,1.46,1.57
4185.0,1.5,1.46,1.62
4187.0,1.52,1.46,1.64
4189.0,1.51,1.46,1.61
4191.0,1.5,1.46,1.59
4193.0,1.48,1.45,1.58
4195.0,1.47,1.46,1.59
4197.0,1.47,1.46,1.59
4199.0,1.48,1.46,1.59
4201.0,1.46,1.46,1.63
4203.0,1.45,1.46,1.63
4205.0,1.45,1.46,1.62
4207.0,1.47,1.46,1.62
4209.0,1.48,1.45,1.62
4211.0,1.49,1.45,1.61
4213.0,1.48,1.45,1.58
4215.0,1.47,1.46,1.56
4217.0,1.46,1.46,1.54
4219.0,1.45,1.46,1.53
4221.0,1.44,1.46,1.53
4224.0,1.45,1.46,1.52
4226.0,1.46,1.46,1.54
4227.0,1.46,1.46,1.55
4229.0,1.44,1.45,1.56
4231.0,1.44,1.46,1.58
4233.0,1.43,1.45,1.56
4235.0,1.44,1.46,1.55
4237.0,1.43,1.46,1.52
4239.0,1.42,1.46,1.49
4241.0,1.43,1.46,1.46
4243.0,1.45,1.46,1.46
4245.0,1.48,1.46,1.49
4247.0,1.51,1.45,1.49
4249.0,1.5,1.45,1.46
4251.0,1.49,1.45,1.45
4253.0,1.5,1.46,1.45
4255.0,1.5,1.46,1.43
4257.0,1.48,1.46,1.41
4259.0,1.46,1.46,1.38
4261.0,1.45,1.46,1.37
4263.0,1.46,1.46,1.37
4265.0,1.49,1.46,1.37
4268.0,1.49,1.46,1.38
4269.0,1.48,1.46,1.38
4271.0,1.48,1.45,1.38
4273.0,1.48,1.46,1.38
4275.0,1.47,1.46,1.36
4277.0,1.45,1.46,1.35
4279.0,1.44,1.46,1.36
4281.0,1.44,1.46,1.34
4283.0,1.44,1.46,1.33
4285.0,1.45,1.46,1.34
4287.0,1.46,1.45,1.36
4289.0,1.45,1.45,1.36
4291.0,1.44,1.45,1.38
4293.0,1.41,1.45,1.37
4295.0,1.4,1.46,1.36
4297.0,1.38,1.46,1.36
4299.0,1.37,1.46,1.36
4301.0,1.37,1.46,1.35
4303.0,1.39,1.46,1.35
4305.0,1.41,1.46,1.33
4307.0,1.44,1.45,1.35
4310.0,1.43,1.45,1.41
4312.0,1.41,1.45,1.46
4313.0,1.4,1.46,1.45
4315.0,1.4,1.46,1.46
4317.0,1.4,1.46,1.47
4319.0,1.4,1.46,1.45
4321.0,1.41,1.46,1.44
4323.0,1.43,1.46,1.45
4325.0,1.44,1.46,1.45
4327.0,1.45,1.46,1.47
4329.0,1.45,1.45,1.46
4331.0,1.44,1.45,1.44
4333.0,1.43,1.45,1.38
4335.0,1.43,1.45,1.29
4337.0,1.4,1.46,1.23
4339.0,1.39,1.46,1.19
4341.0,1.4,1.46,1.16
4343.0,1.42,1.46,1.19
4345.0,1.44,1.46,1.23
4347.0,1.45,1.46,1.29
4349.0,1.45,1.45,1.33
4352.0,1.42,1.46,1.33
4354.0,1.4,1.46,1.32
4355.0,1.4,1.46,1.32
4357.0,1.39,1.46,1.32
4359.0,1.38,1.46,1.34
4361.0,1.38,1.46,1.36
4363.0,1.39,1.46,1.36
4365.0,1.41,1.46,1.4
4367.0,1.44,1.46,1.43
4369.0,1.44,1.46,1.42
4371.0,1.44,1.45,1.41
4373.0,1.42,1.45,1.42
4375.0,1.42,1.46,1.42
4377.0,1.41,1.46,1.43
4379.0,1.41,1.46,1.42
4381.0,1.4,1.46,1.38
4383.0,1.42,1.46,1.37
4385.0,1.45,1.46,1.37
4387.0,1.48,1.46,1.42
4389.0,1.48,1.45,1.46
4391.0,1.48,1.45,1.45
4393.0,1.45,1.46,1.44
4396.0,1.44,1.46,1.42
4397.0,1.43,1.46,1.4
4399.0,1.43,1.46,1.38
4401.0,1.43,1.46,1.4
4403.0,1.44,1.46,1.42
4405.0,1.47,1.46,1.45
4407.0,1.49,1.45,1.45
4409.0,1.47,1.45,1.45
4411.0,1.47,1.45,1.45
4413.0,1.46,1.45,1.46
4415.0,1.44,1.46,1.49
4417.0,1.44,1.46,1.47
4419.0,1.42,1.46,1.45
4421.0,1.42,1.46,1.46
4423.0,1.44,1.46,1.48
4425.0,1.46,1.46,1.5
4427.0,1.48,1.46,1.52
4429.0,1.48,1.45,1.5
4431.0,1.48,1.45,1.51
4433.0,1.47,1.46,1.54
4435.0,1.48,1.46,1.56
4438.0,1.47,1.46,1.58
4440.0,1.46,1.46,1.6
4441.0,1.47,1.46,1.62
4443.0,1.5,1.46,1.62
4445.0,1.53,1.46,1.64
4447.0,1.54,1.45,1.65
4449.0,1.54,1.45,1.64
4451.0,1.52,1.45,1.64
4453.0,1.5,1.45,1.62
4455.0,1.48,1.46,1.58
4457.0,1.46,1.46,1.56
4459.0,1.45,1.46,1.54
4461.0,1.45,1.46,1.54
4463.0,1.46,1.46,1.56
4465.0,1.47,1.46,1.63
4467.0,1.49,1.45,1.68
4469.0,1.47,1.45,1.7
4471.0,1.47,1.46,1.71
4473.0,1.47,1.45,1.69
4475.0,1.47,1.46,1.69
4477.0,1.46,1.46,1.68
4480.0,1.44,1.46,1.67
4482.0,1.44,1.46,1.66
4483.0,1.46,1.46,1.65
4485.0,1.46,1.46,1.64
4487.0,1.49,1.45,1.61
4489.0,1.49,1.46,1.59
4491.0,1.48,1.46,1.62
4493.0,1.45,1.46,1.62
4495.0,1.44,1.46,1.64
4497.0,1.43,1.46,1.75
4499.0,1.43,1.46,1.84
4501.0,1.45,1.46,1.86
4503.0,1.45,1.46,1.85
4505.0,1.45,1.46,1.85
4507.0,1.46,1.45,1.85
4509.0,1.45,1.45,1.82
4511.0,1.45,1.45,1.8
4513.0,1.45,1.46,1.76
4515.0,1.43,1.46,1.75
4517.0,1.42,1.46,1.74
4519.0,1.42,1.46,1.71
4521.0,1.42,1.46,1.69
4524.0,1.45,1.46,1.63
4525.0,1.47,1.46,1.56
4527.0,1.49,1.45,1.49
4529.0,1.49,1.46,1.46
4531.0,1.47,1.45,1.43
4533.0,1.47,1.46,1.4
4535.0,1.46,1.46,1.35
4537.0,1.44,1.46,1.35
4539.0,1.42,1.46,1.33
4541.0,1.42,1.46,1.33
4543.0,1.43,1.46,1.31
4545.0,1.45,1.46,1.3
4547.0,1.46,1.45,1.31
4549.0,1.45,1.46,1.29
4551.0,1.45,1.45,1.29
4553.0,1.44,1.45,1.29
4555.0,1.43,1.46,1.3
4557.0,1.41,1.46,1.31
4559.0,1.4,1.46,1.31
4561.0,1.41,1.46,1.31
4563.0,1.42,1.46,1.33
4566.0,1.44,1.46,1.35
4568.0,1.46,1.45,1.35
4569.0,1.45,1.45,1.37
4571.0,1.45,1.45,1.36
4573.0,1.44,1.45,1.29
4575.0,1.42,1.46,1.25
4577.0,1.4,1.46,1.22
4579.0,1.4,1.46,1.17
4581.0,1.43,1.46,1.17
4583.0,1.44,1.46,1.16
4585.0,1.47,1.46,1.16
4587.0,1.49,1.45,1.16
4589.0,1.48,1.45,1.16
4591.0,1.48,1.45,1.14
4593.0,1.48,1.45,1.15
4595.0,1.46,1.46,1.16
4597.0,1.45,1.46,1.17
4599.0,1.44,1.46,1.18
4601.0,1.45,1.46,1.19
4603.0,1.46,1.46,1.2
4605.0,1.49,1.46,1.23
4608.0,1.5,1.45,1.23
4610.0,1.48,1.45,1.23
4611.0,1.48,1.45,1.23
4613.0,1.48,1.45,1.21
4615.0,1.46,1.46,1.23
4617.0,1.44,1.46,1.27
4619.0,1.41,1.46,1.28
4621.0,1.4,1.46,1.32
4623.0,1.42,1.46,1.35
4625.0,1.47,1.46,1.35
4627.0,1.49,1.45,1.35
4629.0,1.48,1.45,1.33
4631.0,1.47,1.45,1.35
4633.0,1.46,1.45,1.36
4635.0,1.45,1.46,1.39
4637.0,1.44,1.46,1.4
4639.0,1.43,1.46,1.38
4641.0,1.44,1.46,1.38
4643.0,1.46,1.46,1.37
4645.0,1.48,1.46,1.39
4647.0,1.48,1.46,1.38
4649.0,1.47,1.45,1.38
4652.0,1.45,1.45,1.39
4653.0,1.45,1.46,1.4
4655.0,1.44,1.46,1.38
4657.0,1.43,1.46,1.37
4659.0,1.41,1.46,1.36
4661.0,1.42,1.46,1.37
4663.0,1.43,1.46,1.38
4665.0,1.45,1.46,1.37
4667.0,1.44,1.45,1.35
4669.0,1.42,1.45,1.33
4671.0,1.4,1.45,1.35
4673.0,1.41,1.46,1.34
4675.0,1.4,1.46,1.37
4677.0,1.41,1.46,1.4
4679.0,1.4,1.46,1.37
4681.0,1.4,1.46,1.4
4683.0,1.43,1.46,1.4
4685.0,1.45,1.46,1.41
4687.0,1.46,1.45,1.41
4689.0,1.45,1.45,1.4
4691.0,1.45,1.45,1.39
4694.0,1.47,1.45,1.39
4696.0,1.45,1.46,1.4
4697.0,1.44,1.46,1.41
4699.0,1.43,1.46,1.41
4701.0,1.42,1.46,1.41
4703.0,1.43,1.46,1.41
4705.0,1.47,1.46,1.43
4707.0,1.48,1.45,1.43
4709.0,1.45,1.45,1.44
4711.0,1.43,1.45,1.42
4713.0,1.42,1.46,1.41
4715.0,1.4,1.46,1.39
4717.0,1.4,1.46,1.37
4719.0,1.4,1.46,1.33
4721.0,1.43,1.46,1.32
4723.0,1.43,1.46,1.31
4725.0,1.43,1.46,1.32
4727.0,1.43,1.45,1.32
4729.0,1.42,1.45,1.32
4731.0,1.4,1.45,1.33
4733.0,1.4,1.46,1.34
4736.0,1.4,1.46,1.35
4738.0,1.39,1.46,1.35
4739.0,1.39,1.46,1.35
4741.0,1.39,1.46,1.37
4743.0,1.42,1.46,1.41
4745.0,1.44,1.46,1.45
4747.0,1.45,1.45,1.45
4749.0,1.44,1.45,1.45
4751.0,1.44,1.45,1.44
4753.0,1.45,1.45,1.35
4755.0,1.43,1.46,1.23
4757.0,1.42,1.46,1.25
4759.0,1.4,1.46,1.28
4761.0,1.41,1.46,1.31
4763.0,1.42,1.46,1.35
4765.0,1.44,1.46,1.38
4767.0,1.45,1.45,1.39
4769.0,1.44,1.45,1.4
4771.0,1.41,1.45,1.41
4773.0,1.42,1.46,1.42
4775.0,1.42,1.46,1.43
4777.0,1.43,1.46,1.45
4780.0,1.41,1.46,1.46
4781.0,1.42,1.46,1.47
4783.0,1.43,1.46,1.5
4785.0,1.44,1.46,1.49
4787.0,1.46,1.45,1.48
4789.0,1.47,1.45,1.48
4791.0,1.46,1.45,1.47
4793.0,1.43,1.46,1.47
4795.0,1.42,1.46,1.44
4797.0,1.43,1.46,1.45
4799.0,1.41,1.46,1.47
4801.0,1.42,1.46,1.47
4803.0,1.43,1.46,1.47
4805.0,1.45,1.46,1.49
4807.0,1.43,1.45,1.49
4809.0,1.41,1.45,1.49
4811.0,1.39,1.45,1.49
4813.0,1.38,1.46,1.47
4815.0,1.38,1.46,1.45
4817.0,1.38,1.46,1.47
4819.0,1.37,1.46,1.49
4822.0,1.39,1.46,1.51
4824.0,1.39,1.46,1.51
4825.0,1.42,1.46,1.51
4827.0,1.43,1.45,1.5
4829.0,1.42,1.45,1.51
4831.0,1.41,1.45,1.52
4833.0,1.41,1.46,1.54
4835.0,1.4,1.46,1.56
4837.0,1.39,1.46,1.58
4839.0,1.39,1.46,1.56
4841.0,1.41,1.46,1.56
4843.0,1.43,1.46,1.58
4845.0,1.44,1.45,1.58
4847.0,1.44,1.45,1.56
4849.0,1.44,1.45,1.53
4851.0,1.44,1.46,1.5
4853.0,1.44,1.46,1.5
4855.0,1.42,1.46,1.51
4857.0,1.4,1.46,1.5
4859.0,1.39,1.46,1.49
4861.0,1.42,1.46,1.52
4864.0,1.44,1.46,1.55
4866.0,1.45,1.46,1.57
4867.0,1.45,1.45,1.56
4869.0,1.44,1.45,1.55
4871.0,1.44,1.45,1.55
4873.0,1.44,1.45,1.57
4875.0,1.42,1.46,1.56
4877.0,1.42,1.46,1.56
4879.0,1.41,1.46,1.55
4881.0,1.41,1.46,1.56
4883.0,1.43,1.46,1.59
4885.0,1.44,1.45,1.59
4887.0,1.44,1.45,1.59
4889.0,1.42,1.45,1.6
4891.0,1.42,1.45,1.61
4893.0,1.42,1.45,1.57
4895.0,1.4,1.45,1.54
4897.0,1.41,1.45,1.52
4899.0,1.39,1.46,1.49
4901.0,1.39,1.46,1.48
4903.0,1.41,1.46,1.49
4905.0,1.42,1.46,1.49
4908.0,1.44,1.45,1.46
4909.0,1.44,1.45,1.43
4911.0,1.42,1.45,1.39
4913.0,1.42,1.45,1.39
4915.0,1.42,1.45,1.4
4917.0,1.42,1.46,1.4
4919.0,1.4,1.46,1.42
4921.0,1.42,1.46,1.48
4923.0,1.43,1.46,1.51
4925.0,1.45,1.45,1.52
4927.0,1.45,1.45,1.53
4929.0,1.45,1.45,1.55
4931.0,1.46,1.45,1.55
4933.0,1.45,1.45,1.54
4935.0,1.45,1.45,1.53
4937.0,1.44,1.46,1.52
4939.0,1.44,1.46,1.51
4941.0,1.46,1.46,1.51
4943.0,1.48,1.46,1.51
4945.0,1.51,1.46,1.53
4947.0,1.51,1.45,1.5
4950.0,1.49,1.45,1.48
4952.0,1.49,1.45,1.47
4953.0,1.49,1.46,1.45
4955.0,1.46,1.46,1.44
4957.0,1.45,1.46,1.44
4959.0,1.45,1.46,1.43
4961.0,1.45,1.46,1.43
4963.0,1.45,1.46,1.41
4965.0,1.48,1.46,1.39
4967.0,1.48,1.45,1.35
4969.0,1.47,1.45,1.33
4971.0,1.46,1.46,1.33
4973.0,1.45,1.46,1.31
4975.0,1.45,1.46,1.31
4977.0,1.44,1.46,1.28
4979.0,1.44,1.46,1.28
4981.0,1.45,1.46,1.28
4983.0,1.46,1.46,1.29
4985.0,1.49,1.46,1.24
4987.0,1.5,1.46,1.19
4989.0,1.51,1.46,1.18
4992.0,1.51,1.46,1.16
4994.0,1.5,1.46,1.16
4995.0,1.47,1.46,1.17
4997.0,1.46,1.46,1.16
4999.0,1.45,1.46,1.16
5001.0,1.45,1.46,1.16
5003.0,1.48,1.46,1.17
5005.0,1.5,1.46,1.17
5007.0,1.5,1.45,1.17
5009.0,1.49,1.46,1.18
5011.0,1.49,1.46,1.19
5013.0,1.48,1.46,1.2
5015.0,1.46,1.46,1.21
5017.0,1.45,1.46,1.22
5019.0,1.45,1.46,1.21
5021.0,1.46,1.46,1.22
5023.0,1.46,1.46,1.24
5025.0,1.48,1.46,1.27
5027.0,1.46,1.46,1.26
5029.0,1.45,1.46,1.26
5031.0,1.45,1.46,1.27
5033.0,1.44,1.46,1.29
5036.0,1.42,1.46,1.31
5037.0,1.41,1.46,1.33
5039.0,1.4,1.46,1.34
5041.0,1.42,1.46,1.35
5043.0,1.44,1.46,1.37
5045.0,1.47,1.46,1.41
5047.0,1.47,1.45,1.42
5049.0,1.47,1.46,1.42
5051.0,1.46,1.46,1.43
5053.0,1.46,1.46,1.42
5055.0,1.44,1.46,1.42
5057.0,1.43,1.46,1.44
5059.0,1.42,1.46,1.44
5061.0,1.43,1.46,1.47
5063.0,1.45,1.46,1.51
5065.0,1.49,1.46,1.53
5067.0,1.49,1.46,1.53
5069.0,1.49,1.46,1.54
5071.0,1.48,1.46,1.53
5073.0,1.46,1.46,1.53
5075.0,1.46,1.46,1.51
5078.0,1.46,1.46,1.53
5080.0,1.45,1.46,1.54
5081.0,1.45,1.46,1.54
5083.0,1.45,1.46,1.54
5085.0,1.47,1.45,1.57
5087.0,1.45,1.45,1.57
5089.0,1.44,1.46,1.54
5091.0,1.42,1.45,1.52
5093.0,1.41,1.46,1.51
5095.0,1.41,1.46,1.51
5097.0,1.41,1.46,1.52
5099.0,1.4,1.46,1.51
5101.0,1.4,1.46,1.53
5103.0,1.43,1.46,1.53
5105.0,1.46,1.46,1.5
5107.0,1.45,1.45,1.47
5109.0,1.44,1.45,1.45
5111.0,1.42,1.45,1.46
5113.0,1.42,1.46,1.46
5115.0,1.4,1.46,1.43
5117.0,1.39,1.46,1.41
5120.0,1.38,1.46,1.4
5122.0,1.4,1.46,1.42
5123.0,1.42,1.46,1.46
5125.0,1.45,1.46,1.48
5127.0,1.45,1.45,1.47
5129.0,1.44,1.45,1.46
5131.0,1.42,1.46,1.47
5133.0,1.41,1.46,1.46
5135.0,1.4,1.46,1.45
5137.0,1.39,1.46,1.45
5139.0,1.38,1.46,1.44
5141.0,1.39,1.46,1.44
5143.0,1.42,1.46,1.44
5145.0,1.44,1.46,1.45
5147.0,1.43,1.46,1.45
5149.0,1.41,1.45,1.45
5151.0,1.41,1.46,1.45
5153.0,1.4,1.46,1.44
5155.0,1.38,1.46,1.45
5157.0,1.37,1.46,1.43
5159.0,1.37,1.46,1.41
5161.0,1.38,1.46,1.44
5164.0,1.41,1.46,1.45
5165.0,1.44,1.46,1.45
5167.0,1.43,1.46,1.45
5169.0,1.41,1.46,1.43
5171.0,1.41,1.46,1.42
5173.0,1.41,1.46,1.42
5175.0,1.39,1.46,1.4
5177.0,1.36,1.46,1.39
5179.0,1.33,1.46,1.41
5181.0,1.32,1.46,1.41
5183.0,1.32,1.46,1.43
5185.0,1.34,1.46,1.42
5187.0,1.34,1.46,1.43
5189.0,1.34,1.46,1.44
5191.0,1.35,1.46,1.42
5193.0,1.34,1.46,1.41
5195.0,1.33,1.46,1.4
5197.0,1.33,1.46,1.41
5199.0,1.34,1.46,1.4
5201.0,1.35,1.46,1.4
5203.0,1.38,1.46,1.41
5206.0,1.39,1.46,1.43
5208.0,1.4,1.46,1.42
5209.0,1.4,1.45,1.41
5211.0,1.38,1.46,1.4
5213.0,1.37,1.46,1.42
5215.0,1.36,1.46,1.44
5217.0,1.36,1.46,1.44
5219.0,1.37,1.46,1.44
5221.0,1.37,1.46,1.46
5223.0,1.4,1.46,1.46
5225.0,1.41,1.45,1.45
5227.0,1.43,1.45,1.44
5229.0,1.42,1.45,1.43
5231.0,1.41,1.45,1.43
5233.0,1.4,1.46,1.43
5235.0,1.41,1.46,1.43
5237.0,1.4,1.46,1.45
5239.0,1.4,1.46,1.47
5241.0,1.42,1.46,1.49
5243.0,1.43,1.46,1.53
5245.0,1.45,1.46,1.56
5248.0,1.44,1.45,1.55
5250.0,1.44,1.45,1.53
5251.0,1.43,1.45,1.55
5253.0,1.42,1.46,1.55
5255.0,1.42,1.46,1.51
5257.0,1.41,1.46,1.46
5259.0,1.42,1.46,1.44
5261.0,1.44,1.46,1.45
5263.0,1.46,1.46,1.48
5265.0,1.5,1.45,1.48
5267.0,1.5,1.45,1.47
5269.0,1.48,1.45,1.49
5271.0,1.48,1.45,1.52
5273.0,1.49,1.46,1.53
5275.0,1.47,1.46,1.54
5277.0,1.45,1.46,1.54
5279.0,1.45,1.46,1.52
5281.0,1.47,1.46,1.52
5283.0,1.49,1.46,1.54
5285.0,1.5,1.46,1.52
5287.0,1.5,1.46,1.5
5289.0,1.49,1.46,1.49
5292.0,1.47,1.45,1.46
5293.0,1.45,1.46,1.45
5295.0,1.43,1.46,1.43
5297.0,1.44,1.46,1.4
5299.0,1.43,1.46,1.37
5301.0,1.45,1.46,1.37
5303.0,1.46,1.46,1.4
5305.0,1.48,1.45,1.4
5307.0,1.47,1.45,1.38
5309.0,1.46,1.45,1.37
5311.0,1.45,1.45,1.39
5313.0,1.44,1.45,1.37
5315.0,1.44,1.46,1.36
5317.0,1.43,1.46,1.36
5319.0,1.45,1.46,1.37
5321.0,1.45,1.46,1.43
5323.0,1.47,1.46,1.47
5325.0,1.48,1.46,1.46
5327.0,1.46,1.45,1.48
5329.0,1.46,1.45,1.47
5331.0,1.47,1.46,1.45
5334.0,1.47,1.46,1.46
5336.0,1.45,1.46,1.45
5337.0,1.45,1.46,1.45
5339.0,1.45,1.46,1.46
5341.0,1.45,1.46,1.49
5343.0,1.46,1.46,1.54
5345.0,1.47,1.45,1.58
5347.0,1.48,1.45,1.6
5349.0,1.48,1.45,1.6
5351.0,1.48,1.45,1.59
5353.0,1.47,1.46,1.57
5355.0,1.47,1.46,1.55
5357.0,1.46,1.46,1.52
5359.0,1.46,1.46,1.54
5361.0,1.49,1.46,1.58
5363.0,1.51,1.46,1.57
5365.0,1.52,1.45,1.55
5367.0,1.51,1.45,1.53
5369.0,1.52,1.45,1.51
5371.0,1.49,1.46,1.5
5373.0,1.48,1.46,1.49
5376.0,1.46,1.46,1.49
5378.0,1.45,1.46,1.48
5379.0,1.44,1.46,1.51
5381.0,1.45,1.46,1.53
5383.0,1.47,1.46,1.54
5385.0,1.48,1.46,1.55
5387.0,1.48,1.45,1.55
5389.0,1.46,1.46,1.54
5391.0,1.46,1.45,1.53
5393.0,1.45,1.46,1.53
5395.0,1.44,1.46,1.53
5397.0,1.43,1.46,1.54
5399.0,1.43,1.46,1.54
5401.0,1.44,1.46,1.56
5403.0,1.47,1.46,1.55
5405.0,1.49,1.45,1.55
5407.0,1.49,1.46,1.55
5409.0,1.48,1.46,1.55
5411.0,1.46,1.46,1.54
5413.0,1.47,1.46,1.52
5415.0,1.48,1.46,1.52
5417.0,1.48,1.46,1.52
5420.0,1.47,1.46,1.53
5421.0,1.47,1.46,1.54
5423.0,1.48,1.46,1.55
5425.0,1.49,1.45,1.53
5427.0,1.5,1.45,1.51
5429.0,1.49,1.45,1.51
5431.0,1.47,1.45,1.49
5433.0,1.46,1.45,1.49
5435.0,1.46,1.46,1.5
5437.0,1.45,1.46,1.5
5439.0,1.45,1.46,1.52
5441.0,1.47,1.46,1.51
5443.0,1.5,1.45,1.51
5445.0,1.5,1.45,1.5
5447.0,1.47,1.45,1.48
5449.0,1.47,1.45,1.47
5451.0,1.46,1.45,1.45
5453.0,1.44,1.45,1.44
5455.0,1.44,1.46,1.41
5457.0,1.41,1.46,1.38
5459.0,1.44,1.46,1.38
5462.0,1.45,1.46,1.37
5464.0,1.45,1.46,1.34
5465.0,1.44,1.45,1.34
5467.0,1.45,1.45,1.35
5469.0,1.47,1.45,1.36
5471.0,1.44,1.45,1.38
5473.0,1.43,1.46,1.39
5475.0,1.43,1.46,1.42
5477.0,1.43,1.46,1.41
5479.0,1.44,1.46,1.41
5481.0,1.45,1.46,1.44
5483.0,1.48,1.46,1.46
5485.0,1.5,1.45,1.48
5487.0,1.48,1.45,1.49
5489.0,1.47,1.45,1.51
5491.0,1.47,1.46,1.52
5493.0,1.46,1.46,1.51
5495.0,1.45,1.46,1.5
5497.0,1.44,1.46,1.49
5499.0,1.44,1.46,1.5
5501.0,1.47,1.46,1.51
5504.0,1.5,1.46,1.53
5506.0,1.51,1.45,1.53
5507.0,1.5,1.45,1.51
5509.0,1.49,1.45,1.51
5511.0,1.49,1.46,1.53
5513.0,1.47,1.46,1.52
5515.0,1.46,1.46,1.51
5517.0,1.46,1.46,1.5
5519.0,1.47,1.46,1.5
5521.0,1.49,1.46,1.5
5523.0,1.5,1.46,1.51
5525.0,1.51,1.45,1.5
5527.0,1.5,1.45,1.51
5529.0,1.5,1.46,1.52
5531.0,1.49,1.45,1.51
5533.0,1.49,1.46,1.51
5535.0,1.47,1.46,1.5
5537.0,1.47,1.46,1.49
5539.0,1.48,1.46,1.48
5541.0,1.5,1.46,1.47
5543.0,1.5,1.46,1.47
5545.0,1.51,1.46,1.47
5548.0,1.51,1.46,1.46
5550.0,1.49,1.45,1.46
5551.0,1.46,1.46,1.47
5553.0,1.46,1.46,1.46
5555.0,1.45,1.46,1.48
5557.0,1.44,1.46,1.49
5559.0,1.45,1.46,1.51
5561.0,1.45,1.46,1.52
5563.0,1.47,1.46,1.54
5565.0,1.49,1.45,1.52
5567.0,1.47,1.46,1.5
5569.0,1.47,1.46,1.45
5571.0,1.46,1.46,1.4
5573.0,1.46,1.46,1.38
5575.0,1.46,1.46,1.38
5577.0,1.44,1.46,1.38
5579.0,1.43,1.46,1.39
5581.0,1.44,1.46,1.43
5583.0,1.47,1.46,1.44
5585.0,1.48,1.45,1.43
5587.0,1.48,1.45,1.44
5590.0,1.46,1.45,1.46
5592.0,1.47,1.46,1.46
5593.0,1.45,1.46,1.48
5595.0,1.45,1.46,1.47
5597.0,1.44,1.46,1.46
5599.0,1.45,1.46,1.47
5601.0,1.46,1.46,1.48
5603.0,1.49,1.46,1.5
5605.0,1.51,1.45,1.51
5607.0,1.5,1.45,1.49
5609.0,1.48,1.45,1.49
5611.0,1.47,1.46,1.52
5613.0,1.46,1.46,1.51
5615.0,1.46,1.46,1.53
5617.0,1.44,1.46,1.54
5619.0,1.45,1.46,1.54
5621.0,1.45,1.46,1.54
5623.0,1.47,1.46,1.53
5625.0,1.48,1.46,1.52
5627.0,1.48,1.46,1.51
5629.0,1.47,1.46,1.53
5632.0,1.48,1.46,1.54
5634.0,1.47,1.46,1.52
5635.0,1.47,1.46,1.51
5637.0,1.46,1.46,1.51
5639.0,1.47,1.46,1.55
5641.0,1.48,1.46,1.6
5643.0,1.48,1.46,1.65
5645.0,1.51,1.45,1.66
5647.0,1.49,1.45,1.67
5649.0,1.5,1.45,1.69
5651.0,1.5,1.46,1.68
5653.0,1.5,1.46,1.68
5655.0,1.48,1.46,1.65
5657.0,1.43,1.46,1.62
5659.0,1.42,1.46,1.6
5661.0,1.44,1.46,1.6
5663.0,1.47,1.46,1.6
5665.0,1.49,1.46,1.54
5667.0,1.49,1.45,1.54
5669.0,1.48,1.46,1.56
5671.0,1.46,1.46,1.55
5673.0,1.45,1.46,1.51
5676.0,1.42,1.46,1.47
5678.0,1.41,1.46,1.45
5679.0,1.43,1.46,1.46
5681.0,1.44,1.46,1.45
5683.0,1.44,1.46,1.45
5685.0,1.45,1.46,1.44
5687.0,1.47,1.45,1.44
5689.0,1.47,1.46,1.42
5691.0,1.46,1.45,1.38
5693.0,1.45,1.46,1.34
5695.0,1.45,1.46,1.24
5697.0,1.43,1.46,1.19
5699.0,1.43,1.46,1.18
5701.0,1.45,1.46,1.17
5703.0,1.46,1.46,1.19
5705.0,1.45,1.45,1.18
5707.0,1.45,1.46,1.18
5709.0,1.44,1.45,1.18
5711.0,1.43,1.45,1.2
5713.0,1.43,1.46,1.2
5715.0,1.42,1.46,1.17
5718.0,1.42,1.46,1.17
5720.0,1.43,1.46,1.2
5721.0,1.44,1.46,1.23
5723.0,1.48,1.46,1.25
5725.0,1.48,1.46,1.26
5727.0,1.47,1.45,1.28
5729.0,1.45,1.45,1.29
5731.0,1.43,1.46,1.3
5733.0,1.41,1.46,1.3
5735.0,1.41,1.46,1.31
5737.0,1.39,1.46,1.29
5739.0,1.4,1.46,1.31
5741.0,1.41,1.46,1.34
5743.0,1.43,1.45,1.36
5745.0,1.43,1.46,1.36
5747.0,1.42,1.45,1.36
5749.0,1.42,1.45,1.35
5751.0,1.41,1.45,1.34
5753.0,1.4,1.46,1.32
5755.0,1.39,1.46,1.33
5757.0,1.37,1.46,1.32
5760.0,1.36,1.46,1.34
5762.0,1.38,1.46,1.34
5763.0,1.41,1.46,1.35
5765.0,1.41,1.45,1.36
5767.0,1.41,1.45,1.36
5769.0,1.4,1.46,1.34
5771.0,1.4,1.46,1.34
5773.0,1.38,1.46,1.34
5775.0,1.37,1.46,1.35
5777.0,1.37,1.46,1.35
5779.0,1.4,1.46,1.39
5781.0,1.4,1.46,1.39
5783.0,1.43,1.46,1.42
5785.0,1.43,1.45,1.42
5787.0,1.44,1.45,1.43
5789.0,1.43,1.45,1.43
5791.0,1.42,1.46,1.44
5793.0,1.4,1.46,1.44
5795.0,1.38,1.46,1.43
5797.0,1.38,1.46,1.43
5799.0,1.39,1.46,1.44
5801.0,1.42,1.46,1.45
5804.0,1.44,1.45,1.44
5806.0,1.45,1.46,1.43
5807.0,1.45,1.45,1.43
5809.0,1.45,1.45,1.45
5811.0,1.45,1.45,1.48
5813.0,1.44,1.46,1.47
5815.0,1.42,1.46,1.48
5817.0,1.41,1.46,1.51
5819.0,1.42,1.46,1.53
5821.0,1.44,1.46,1.55
5823.0,1.47,1.46,1.58
5825.0,1.48,1.45,1.58
5827.0,1.46,1.45,1.58
5829.0,1.45,1.45,1.56
5831.0,1.45,1.46,1.53
5833.0,1.43,1.46,1.49
5835.0,1.42,1.46,1.46
5837.0,1.41,1.46,1.46
5839.0,1.42,1.46,1.47
5841.0,1.44,1.46,1.45
5843.0,1.46,1.45,1.46
5846.0,1.46,1.45,1.47
5848.0,1.46,1.45,1.48
5849.0,1.46,1.45,1.47
5851.0,1.46,1.46,1.45
5853.0,1.45,1.46,1.45
5855.0,1.44,1.46,1.44
5857.0,1.43,1.46,1.42
5859.0,1.43,1.46,1.43
5861.0,1.45,1.46,1.42
5863.0,1.45,1.45,1.42
5865.0,1.43,1.45,1.41
5867.0,1.43,1.45,1.39
5869.0,1.43,1.45,1.38
5871.0,1.43,1.46,1.38
5873.0,1.43,1.46,1.37
5875.0,1.43,1.46,1.36
5877.0,1.42,1.46,1.36
5879.0,1.44,1.46,1.35
5881.0,1.46,1.46,1.39
5883.0,1.48,1.46,1.41
5885.0,1.47,1.45,1.42
5888.0,1.47,1.45,1.42
5890.0,1.46,1.45,1.4
5891.0,1.45,1.46,1.4
5893.0,1.44,1.46,1.4
5895.0,1.43,1.46,1.39
5897.0,1.43,1.46,1.42
5899.0,1.45,1.46,1.45
5901.0,1.47,1.46,1.45
5903.0,1.48,1.46,1.42
5905.0,1.49,1.45,1.42
5907.0,1.5,1.45,1.42
5909.0,1.49,1.46,1.41
5911.0,1.49,1.46,1.4
5913.0,1.47,1.46,1.37
5915.0,1.45,1.46,1.36
5917.0,1.42,1.46,1.36
5919.0,1.44,1.46,1.38
5921.0,1.46,1.46,1.4
5923.0,1.49,1.45,1.41
5925.0,1.48,1.45,1.41
5927.0,1.47,1.45,1.42
5929.0,1.47,1.45,1.44
5932.0,1.46,1.46,1.46
5934.0,1.45,1.46,1.47
5935.0,1.44,1.46,1.48
5937.0,1.42,1.46,1.46
5939.0,1.43,1.46,1.48
5941.0,1.44,1.46,1.5
5943.0,1.45,1.46,1.5
5945.0,1.44,1.45,1.48
5947.0,1.43,1.45,1.48
5949.0,1.42,1.45,1.45
5951.0,1.43,1.46,1.41
5953.0,1.43,1.46,1.41
5955.0,1.44,1.46,1.42
5957.0,1.42,1.46,1.42
5959.0,1.44,1.46,1.41
5961.0,1.45,1.46,1.42
5963.0,1.46,1.46,1.45
5965.0,1.46,1.45,1.46
5967.0,1.46,1.45,1.46
5969.0,1.44,1.45,1.45
5971.0,1.45,1.46,1.43
5974.0,1.44,1.46,1.39
5976.0,1.43,1.46,1.35
5977.0,1.41,1.46,1.35
5979.0,1.43,1.46,1.37
5981.0,1.45,1.46,1.41
5983.0,1.48,1.46,1.42
5985.0,1.47,1.45,1.42
5987.0,1.47,1.45,1.41
5989.0,1.47,1.45,1.4
5991.0,1.47,1.46,1.4
5993.0,1.45,1.46,1.39
5995.0,1.44,1.46,1.39
5997.0,1.44,1.46,1.38
5999.0,1.44,1.46,1.38
6001.0,1.45,1.46,1.39
6003.0,1.47,1.46,1.39
6005.0,1.46,1.45,1.37
6007.0,1.46,1.45,1.38
6009.0,1.46,1.45,1.42
6011.0,1.45,1.45,1.45
6013.0,1.44,1.46,1.46
6016.0,1.43,1.46,1.47
6018.0,1.43,1.46,1.46
6019.0,1.45,1.46,1.47
6021.0,1.47,1.46,1.49
6023.0,1.49,1.46,1.52
6025.0,1.49,1.46,1.51
6027.0,1.47,1.45,1.5
6029.0,1.46,1.45,1.5
6031.0,1.47,1.46,1.5
6033.0,1.45,1.46,1.49
6035.0,1.46,1.46,1.49
6037.0,1.44,1.46,1.46
6039.0,1.46,1.46,1.47
6041.0,1.47,1.46,1.47
6043.0,1.49,1.46,1.47
6045.0,1.5,1.45,1.45
6047.0,1.47,1.45,1.45
6049.0,1.45,1.45,1.46
6051.0,1.45,1.46,1.46
6053.0,1.42,1.46,1.46
6055.0,1.4,1.46,1.46
6057.0,1.4,1.46,1.45
6060.0,1.43,1.46,1.45
6062.0,1.45,1.46,1.47
6063.0,1.47,1.45,1.5
6065.0,1.46,1.45,1.48
6067.0,1.45,1.45,1.45
6069.0,1.44,1.45,1.45
6071.0,1.43,1.46,1.42
6073.0,1.41,1.46,1.4
6075.0,1.41,1.46,1.38
6077.0,1.41,1.46,1.38
6079.0,1.43,1.46,1.4
6081.0,1.46,1.46,1.4
6083.0,1.47,1.45,1.37
6085.0,1.45,1.46,1.35
6087.0,1.45,1.46,1.35
6089.0,1.44,1.45,1.34
6091.0,1.44,1.46,1.33
6093.0,1.45,1.46,1.33
6095.0,1.45,1.46,1.32
6097.0,1.44,1.46,1.34
6099.0,1.46,1.46,1.37
6102.0,1.47,1.46,1.41
6104.0,1.49,1.45,1.43
6105.0,1.48,1.45,1.46
6107.0,1.46,1.45,1.48
6109.0,1.45,1.45,1.47
6111.0,1.45,1.46,1.48
6113.0,1.42,1.46,1.48
6115.0,1.4,1.46,1.48
6117.0,1.39,1.46,1.48
6119.0,1.41,1.46,1.47
6121.0,1.44,1.46,1.51
6123.0,1.45,1.46,1.52
6125.0,1.43,1.45,1.51
6127.0,1.43,1.45,1.52
6129.0,1.44,1.46,1.52
6131.0,1.42,1.46,1.5
6133.0,1.41,1.46,1.46
6135.0,1.41,1.46,1.45
6137.0,1.42,1.46,1.45
6139.0,1.43,1.46,1.47
6141.0,1.45,1.46,1.52
6144.0,1.44,1.46,1.54
6146.0,1.44,1.46,1.55
6147.0,1.42,1.45,1.55
6149.0,1.42,1.46,1.53
6151.0,1.42,1.46,1.48
6153.0,1.42,1.46,1.46
6155.0,1.41,1.46,1.45
6157.0,1.42,1.46,1.43
6159.0,1.43,1.46,1.45
6161.0,1.45,1.46,1.45
6163.0,1.47,1.45,1.44
6165.0,1.48,1.45,1.39
6167.0,1.47,1.45,1.37
6169.0,1.45,1.46,1.39
6171.0,1.42,1.46,1.39
6173.0,1.42,1.46,1.38
6175.0,1.41,1.46,1.41
6177.0,1.43,1.46,1.45
6179.0,1.42,1.46,1.43
6181.0,1.44,1.46,1.45
6183.0,1.43,1.45,1.45
6185.0,1.41,1.45,1.43
6188.0,1.39,1.45,1.42
6190.0,1.39,1.46,1.43
6191.0,1.39,1.45,1.42
6193.0,1.38,1.46,1.42
6195.0,1.38,1.46,1.44
6197.0,1.38,1.46,1.48
6199.0,1.4,1.46,1.51
6201.0,1.41,1.46,1.53
6203.0,1.45,1.45,1.55
6205.0,1.45,1.45,1.55
6207.0,1.45,1.45,1.53
6209.0,1.45,1.45,1.51
6211.0,1.44,1.46,1.5
6213.0,1.42,1.46,1.51
6215.0,1.41,1.46,1.49
6217.0,1.41,1.46,1.49
6219.0,1.42,1.46,1.47
6221.0,1.45,1.46,1.48
6223.0,1.47,1.45,1.5
6225.0,1.47,1.45,1.47
6227.0,1.46,1.45,1.45
6230.0,1.45,1.45,1.43
6232.0,1.46,1.46,1.43
6233.0,1.44,1.46,1.42
6235.0,1.44,1.46,1.42
6237.0,1.44,1.46,1.42
6239.0,1.45,1.46,1.41
6241.0,1.46,1.45,1.42
6243.0,1.48,1.45,1.44
6245.0,1.48,1.45,1.44
6247.0,1.46,1.45,1.43
6249.0,1.46,1.45,1.42
6251.0,1.45,1.45,1.41
6253.0,1.42,1.46,1.41
6255.0,1.42,1.46,1.39
6257.0,1.42,1.46,1.38
6259.0,1.43,1.46,1.42
6261.0,1.45,1.46,1.45
6263.0,1.45,1.45,1.45
6265.0,1.45,1.45,1.46
6267.0,1.45,1.45,1.46
6269.0,1.44,1.45,1.46
6272.0,1.43,1.45,1.47
6274.0,1.42,1.46,1.47
6275.0,1.39,1.46,1.47
6277.0,1.39,1.46,1.47
6279.0,1.41,1.46,1.48
6281.0,1.43,1.46,1.5
6283.0,1.45,1.45,1.5
6285.0,1.46,1.45,1.51
6287.0,1.45,1.45,1.49
6289.0,1.43,1.46,1.49
6291.0,1.41,1.46,1.48
6293.0,1.4,1.46,1.46
6295.0,1.41,1.46,1.43
6297.0,1.43,1.46,1.44
6299.0,1.44,1.46,1.42
6301.0,1.46,1.46,1.44
6303.0,1.48,1.45,1.42
6305.0,1.47,1.45,1.4
6307.0,1.46,1.45,1.39
6309.0,1.45,1.45,1.35
6311.0,1.42,1.46,1.33
6313.0,1.42,1.46,1.33
6316.0,1.41,1.46,1.33
6318.0,1.42,1.46,1.31
6319.0,1.43,1.46,1.33
6321.0,1.45,1.46,1.35
6323.0,1.46,1.45,1.35
6325.0,1.46,1.45,1.35
6327.0,1.45,1.45,1.35
6329.0,1.45,1.45,1.35
6331.0,1.44,1.46,1.33
6333.0,1.44,1.46,1.32
6335.0,1.43,1.46,1.33
6337.0,1.43,1.46,1.36
6339.0,1.44,1.46,1.41
6341.0,1.45,1.46,1.45
6343.0,1.45,1.45,1.45
6345.0,1.45,1.45,1.41
6347.0,1.46,1.45,1.39
6349.0,1.45,1.45,1.37
6351.0,1.43,1.45,1.35
6353.0,1.41,1.46,1.31
6355.0,1.41,1.46,1.29
6358.0,1.42,1.46,1.3
6360.0,1.41,1.46,1.31
6361.0,1.43,1.46,1.32
6363.0,1.44,1.45,1.32
6365.0,1.43,1.45,1.3
6367.0,1.41,1.45,1.29
6369.0,1.39,1.45,1.27
6371.0,1.39,1.46,1.29
6373.0,1.39,1.46,1.31
6375.0,1.39,1.46,1.33
6377.0,1.39,1.46,1.33
6379.0,1.41,1.46,1.35
6381.0,1.43,1.46,1.38
6383.0,1.45,1.45,1.38
6385.0,1.45,1.45,1.4
6387.0,1.42,1.45,1.35
6389.0,1.42,1.45,1.27
6391.0,1.41,1.45,1.28
6393.0,1.42,1.46,1.28
6395.0,1.41,1.46,1.28
6397.0,1.42,1.46,1.3
6400.0,1.45,1.46,1.32
6402.0,1.47,1.46,1.35
6403.0,1.47,1.45,1.36
6405.0,1.47,1.45,1.37
6407.0,1.45,1.46,1.39
6409.0,1.45,1.45,1.4
6411.0,1.45,1.46,1.38
6413.0,1.45,1.46,1.35
6415.0,1.44,1.46,1.34
6417.0,1.43,1.46,1.34
6419.0,1.45,1.46,1.36
6421.0,1.46,1.45,1.38
6423.0,1.46,1.45,1.36
6425.0,1.45,1.45,1.35
6427.0,1.44,1.45,1.33
6429.0,1.44,1.45,1.34
6431.0,1.42,1.45,1.35
6433.0,1.42,1.46,1.35
6435.0,1.41,1.46,1.35
6437.0,1.39,1.46,1.38
6439.0,1.41,1.46,1.38
6441.0,1.43,1.46,1.38
6444.0,1.44,1.45,1.4
6446.0,1.43,1.45,1.36
6447.0,1.42,1.46,1.35
6449.0,1.42,1.46,1.35
6451.0,1.41,1.46,1.35
6453.0,1.4,1.46,1.36
6455.0,1.38,1.46,1.36
6457.0,1.39,1.46,1.39
6459.0,1.41,1.46,1.39
6461.0,1.44,1.46,1.42
6463.0,1.46,1.45,1.44
6465.0,1.46,1.45,1.46
6467.0,1.45,1.45,1.47
6469.0,1.43,1.46,1.45
6471.0,1.44,1.46,1.45
6473.0,1.44,1.46,1.44
6475.0,1.43,1.46,1.43
6477.0,1.44,1.46,1.43
6479.0,1.46,1.46,1.45
6481.0,1.47,1.46,1.48
6483.0,1.48,1.45,1.47
6486.0,1.47,1.45,1.48
6488.0,1.46,1.45,1.47
6489.0,1.45,1.45,1.47
6491.0,1.45,1.46,1.45
6493.0,1.45,1.46,1.45
6495.0,1.43,1.46,1.43
6497.0,1.44,1.46,1.46
6499.0,1.45,1.46,1.48
6501.0,1.46,1.46,1.52
6503.0,1.46,1.45,1.53
6505.0,1.45,1.45,1.51
6507.0,1.44,1.45,1.51
6509.0,1.44,1.45,1.48
6511.0,1.43,1.45,1.48
6513.0,1.43,1.46,1.47
6515.0,1.42,1.46,1.47
6517.0,1.43,1.46,1.48
6519.0,1.45,1.46,1.48
6521.0,1.47,1.46,1.49
6523.0,1.47,1.45,1.5
6525.0,1.46,1.45,1.48
6528.0,1.46,1.45,1.48
6530.0,1.45,1.45,1.47
6532.0,1.44,1.46,1.48
6533.0,1.43,1.46,1.46
6535.0,1.42,1.46,1.44
6537.0,1.44,1.46,1.42
6539.0,1.45,1.46,1.42
6541.0,1.46,1.46,1.41
6543.0,1.47,1.45,1.42
6545.0,1.47,1.45,1.44
6547.0,1.48,1.45,1.45
6549.0,1.48,1.45,1.45
6551.0,1.46,1.46,1.44
6553.0,1.46,1.46,1.45
6555.0,1.45,1.46,1.44
6557.0,1.46,1.46,1.43
6559.0,1.46,1.46,1.45
6561.0,1.48,1.46,1.47
6563.0,1.5,1.45,1.47
6565.0,1.49,1.45,1.47
6567.0,1.47,1.45,1.46
6569.0,1.46,1.46,1.45
6572.0,1.44,1.46,1.44
6574.0,1.44,1.46,1.44
6575.0,1.42,1.46,1.44
6577.0,1.4,1.46,1.45
6579.0,1.4,1.46,1.43
6581.0,1.43,1.46,1.45
6583.0,1.44,1.45,1.48
6585.0,1.44,1.45,1.51
6587.0,1.43,1.46,1.53
6589.0,1.42,1.45,1.55
6591.0,1.4,1.45,1.57
6593.0,1.41,1.46,1.55
6595.0,1.41,1.46,1.52
6597.0,1.41,1.46,1.47
6599.0,1.41,1.46,1.45
6601.0,1.42,1.45,1.45
6603.0,1.42,1.45,1.44
6605.0,1.41,1.45,1.46
6607.0,1.4,1.46,1.43
6609.0,1.4,1.45,1.41
6611.0,1.4,1.46,1.39
6614.0,1.39,1.46,1.36
6616.0,1.38,1.46,1.33
6617.0,1.39,1.46,1.35
6619.0,1.4,1.46,1.35
6621.0,1.42,1.46,1.34
6623.0,1.43,1.45,1.35
6625.0,1.43,1.45,1.35
6627.0,1.42,1.45,1.4
6629.0,1.41,1.46,1.39
6631.0,1.41,1.46,1.4
6633.0,1.4,1.46,1.42
6635.0,1.4,1.46,1.42
6637.0,1.43,1.46,1.42
6639.0,1.45,1.46,1.44
6641.0,1.46,1.45,1.45
6643.0,1.45,1.45,1.46
6645.0,1.45,1.45,1.47
6647.0,1.45,1.46,1.46
6649.0,1.45,1.46,1.44
6651.0,1.43,1.46,1.45
6653.0,1.41,1.46,1.46
6656.0,1.4,1.46,1.47
6658.0,1.41,1.46,1.49
6660.0,1.43,1.46,1.54
6661.0,1.45,1.46,1.57
6663.0,1.45,1.45,1.55
6665.0,1.42,1.45,1.55
6667.0,1.39,1.45,1.55
6669.0,1.38,1.46,1.56
6671.0,1.37,1.46,1.55
6673.0,1.37,1.46,1.54
6675.0,1.36,1.46,1.53
6677.0,1.37,1.46,1.54
6679.0,1.39,1.46,1.55
6681.0,1.41,1.45,1.53
6683.0,1.4,1.45,1.51
6685.0,1.41,1.45,1.51
6687.0,1.41,1.45,1.51
6689.0,1.42,1.46,1.51
6691.0,1.4,1.46,1.47
6693.0,1.41,1.46,1.45
6695.0,1.42,1.46,1.45
6697.0,1.43,1.46,1.46
6700.0,1.44,1.46,1.52
6702.0,1.47,1.46,1.53
6703.0,1.49,1.45,1.52
6705.0,1.48,1.45,1.51
6707.0,1.46,1.46,1.5
6709.0,1.45,1.46,1.54
6711.0,1.45,1.45,1.57
6713.0,1.45,1.46,1.58
6715.0,1.45,1.46,1.59
6717.0,1.47,1.46,1.57
6719.0,1.49,1.46,1.57
6721.0,1.51,1.45,1.58
6723.0,1.5,1.45,1.57
6725.0,1.51,1.45,1.57
6727.0,1.49,1.45,1.57
6729.0,1.5,1.46,1.55
6731.0,1.48,1.46,1.55
6733.0,1.48,1.46,1.55
6735.0,1.47,1.46,1.61
6737.0,1.48,1.46,1.66
6739.0,1.5,1.46,1.68
6742.0,1.54,1.46,1.69
6744.0,1.54,1.45,1.67
6745.0,1.51,1.45,1.67
6747.0,1.48,1.45,1.65
6749.0,1.49,1.46,1.63
6751.0,1.47,1.46,1.64
6753.0,1.46,1.46,1.63
6755.0,1.45,1.46,1.6
6757.0,1.47,1.46,1.61
6759.0,1.49,1.46,1.59
6761.0,1.52,1.45,1.6
6763.0,1.5,1.45,1.59
6765.0,1.49,1.45,1.57
6767.0,1.49,1.45,1.55
6769.0,1.49,1.46,1.53
6771.0,1.46,1.46,1.5
6773.0,1.45,1.46,1.5
6775.0,1.44,1.46,1.48
6777.0,1.44,1.46,1.49
6779.0,1.46,1.46,1.51
6781.0,1.49,1.46,1.52
6784.0,1.48,1.45,1.48
6786.0,1.48,1.45,1.47
6788.0,1.46,1.46,1.49
6789.0,1.46,1.46,1.5
6791.0,1.45,1.46,1.49
6793.0,1.44,1.46,1.51
6795.0,1.44,1.46,1.5
6797.0,1.45,1.46,1.5
6799.0,1.46,1.46,1.51
6801.0,1.48,1.45,1.5
6803.0,1.46,1.45,1.49
6805.0,1.45,1.45,1.47
6807.0,1.45,1.46,1.47
6809.0,1.45,1.45,1.46
6811.0,1.44,1.46,1.45
6813.0,1.41,1.46,1.45
6815.0,1.41,1.46,1.45
6817.0,1.42,1.46,1.45
6819.0,1.45,1.46,1.46
6821.0,1.47,1.46,1.51
6823.0,1.47,1.45,1.53
6825.0,1.47,1.45,1.53
6828.0,1.45,1.46,1.53
6830.0,1.44,1.46,1.47
6831.0,1.43,1.46,1.39
6833.0,1.42,1.46,1.35
6835.0,1.4,1.46,1.3
6837.0,1.41,1.46,1.27
6839.0,1.44,1.46,1.24
6841.0,1.46,1.46,1.25
6843.0,1.45,1.45,1.26
6845.0,1.44,1.45,1.25
6847.0,1.43,1.45,1.25
6849.0,1.42,1.45,1.26
6851.0,1.4,1.46,1.27
6853.0,1.39,1.46,1.27
6855.0,1.38,1.46,1.29
6857.0,1.4,1.46,1.29
6859.0,1.42,1.46,1.3
6861.0,1.45,1.46,1.32
6863.0,1.44,1.45,1.32
6865.0,1.42,1.45,1.33
6867.0,1.42,1.45,1.32
6870.0,1.42,1.46,1.32
6872.0,1.41,1.46,1.31
6873.0,1.41,1.46,1.32
6875.0,1.4,1.46,1.34
6877.0,1.43,1.46,1.35
6879.0,1.46,1.46,1.39
6881.0,1.48,1.45,1.43
6883.0,1.48,1.45,1.45
6885.0,1.47,1.45,1.45
6887.0,1.46,1.46,1.43
6889.0,1.46,1.46,1.43
6891.0,1.44,1.46,1.43
6893.0,1.43,1.46,1.44
6895.0,1.42,1.46,1.45
6897.0,1.42,1.46,1.47
6899.0,1.43,1.46,1.48
6901.0,1.43,1.45,1.48
6903.0,1.42,1.45,1.46
6905.0,1.43,1.45,1.43
6907.0,1.43,1.45,1.41
6909.0,1.44,1.45,1.39
6912.0,1.44,1.46,1.4
6914.0,1.43,1.46,1.4
6916.0,1.43,1.46,1.39
6917.0,1.46,1.46,1.39
6919.0,1.49,1.46,1.38
6921.0,1.51,1.46,1.39
6923.0,1.49,1.45,1.4
6925.0,1.48,1.45,1.42
6927.0,1.46,1.45,1.45
6929.0,1.42,1.46,1.46
6931.0,1.4,1.46,1.47
6933.0,1.39,1.46,1.48
6935.0,1.4,1.46,1.49
6937.0,1.42,1.46,1.48
6939.0,1.44,1.46,1.48
6941.0,1.45,1.45,1.44
6943.0,1.45,1.45,1.4
6945.0,1.45,1.45,1.37
6947.0,1.43,1.45,1.37
6949.0,1.43,1.46,1.39
6951.0,1.43,1.46,1.39
6953.0,1.43,1.46,1.41
6956.0,1.43,1.46,1.41
6958.0,1.45,1.46,1.41
6959.0,1.47,1.46,1.41
6961.0,1.5,1.46,1.4
6963.0,1.49,1.45,1.4
6965.0,1.48,1.46,1.4
6967.0,1.46,1.45,1.42
6969.0,1.47,1.46,1.41
6971.0,1.46,1.46,1.37
6973.0,1.45,1.46,1.34
6975.0,1.44,1.46,1.33
6977.0,1.45,1.46,1.33
6979.0,1.46,1.46,1.34
6981.0,1.48,1.45,1.34
6983.0,1.46,1.45,1.33
6985.0,1.46,1.46,1.34
6987.0,1.46,1.46,1.34
6989.0,1.44,1.46,1.35
6991.0,1.45,1.46,1.34
6993.0,1.45,1.46,1.33
6995.0,1.44,1.46,1.33
6998.0,1.44,1.46,1.31
7000.0,1.46,1.46,1.29
7001.0,1.47,1.45,1.28
7003.0,1.46,1.45,1.28
7005.0,1.46,1.46,1.3
7007.0,1.45,1.45,1.31
7009.0,1.44,1.46,1.32
7011.0,1.44,1.46,1.33
7013.0,1.42,1.46,1.34
7015.0,1.42,1.46,1.34
7017.0,1.42,1.46,1.35
7019.0,1.45,1.46,1.37
7021.0,1.45,1.45,1.37
7023.0,1.44,1.45,1.37
7025.0,1.43,1.46,1.38
7027.0,1.42,1.46,1.39
7029.0,1.41,1.46,1.4
7031.0,1.39,1.46,1.38
7033.0,1.39,1.46,1.36
7035.0,1.39,1.46,1.37
7037.0,1.41,1.46,1.39
7040.0,1.44,1.46,1.41
7042.0,1.46,1.45,1.45
7044.0,1.44,1.45,1.44
7045.0,1.44,1.45,1.44
7047.0,1.43,1.46,1.43
7049.0,1.43,1.46,1.44
7051.0,1.43,1.46,1.43
7053.0,1.44,1.46,1.43
7055.0,1.43,1.46,1.47
7057.0,1.43,1.46,1.52
7059.0,1.45,1.46,1.54
7061.0,1.47,1.45,1.54
7063.0,1.47,1.45,1.51
7065.0,1.45,1.46,1.49
7067.0,1.44,1.46,1.5
7069.0,1.45,1.46,1.49
7071.0,1.44,1.46,1.47
7073.0,1.45,1.46,1.49
7075.0,1.45,1.46,1.51
7077.0,1.46,1.46,1.53
7079.0,1.47,1.46,1.53
7081.0,1.48,1.45,1.55
7084.0,1.47,1.45,1.58
7086.0,1.46,1.45,1.57
7087.0,1.46,1.46,1.56
7089.0,1.46,1.46,1.57
7091.0,1.44,1.46,1.55
7093.0,1.44,1.46,1.54
7095.0,1.45,1.46,1.51
7097.0,1.47,1.46,1.5
7099.0,1.48,1.46,1.5
7101.0,1.5,1.45,1.51
7103.0,1.48,1.46,1.5
7105.0,1.46,1.46,1.49
7107.0,1.47,1.46,1.48
7109.0,1.47,1.46,1.49
7111.0,1.46,1.46,1.47
7113.0,1.46,1.46,1.45
7115.0,1.46,1.46,1.45
7117.0,1.48,1.46,1.45
7119.0,1.49,1.46,1.43
7121.0,1.49,1.46,1.43
7123.0,1.49,1.46,1.41
7126.0,1.49,1.46,1.39
7128.0,1.46,1.46,1.39
7129.0,1.44,1.46,1.39
7131.0,1.45,1.46,1.39
7133.0,1.44,1.46,1.39
7135.0,1.44,1.46,1.41
7137.0,1.43,1.46,1.42
7139.0,1.43,1.46,1.45
7141.0,1.44,1.46,1.46
7143.0,1.42,1.45,1.43
7145.0,1.41,1.45,1.41
7147.0,1.38,1.46,1.4
7149.0,1.37,1.46,1.39
7151.0,1.37,1.46,1.4
7153.0,1.36,1.46,1.38
7155.0,1.36,1.46,1.38
7157.0,1.37,1.46,1.39
7159.0,1.39,1.46,1.4
7161.0,1.41,1.45,1.41
7163.0,1.4,1.45,1.42
7165.0,1.39,1.46,1.44
7168.0,1.38,1.46,1.43
7170.0,1.37,1.46,1.44
7172.0,1.36,1.46,1.45
7173.0,1.36,1.46,1.45
7175.0,1.37,1.46,1.45
7177.0,1.39,1.46,1.45
7179.0,1.4,1.46,1.48
7181.0,1.41,1.46,1.51
7183.0,1.41,1.46,1.5
7185.0,1.41,1.46,1.48
7187.0,1.42,1.46,1.48
7189.0,1.43,1.46,1.46
7191.0,1.4,1.46,1.46
7193.0,1.39,1.46,1.44
7195.0,1.41,1.46,1.45
7197.0,1.44,1.46,1.45
7199.0,1.46,1.46,1.47
7201.0,1.48,1.46,1.49
7203.0,1.47,1.46,1.49
7205.0,1.45,1.46,1.52
7207.0,1.45,1.46,1.55
7209.0,1.43,1.46,1.56
7212.0,1.43,1.46,1.58
7214.0,1.43,1.46,1.56
7215.0,1.42,1.46,1.56
7217.0,1.44,1.46,1.55
7219.0,1.47,1.46,1.52
7221.0,1.49,1.46,1.5
7223.0,1.46,1.46,1.5
7225.0,1.44,1.46,1.5
7227.0,1.43,1.46,1.51
7229.0,1.42,1.46,1.49
7231.0,1.4,1.46,1.49
7233.0,1.39,1.46,1.48
7235.0,1.4,1.46,1.49
7237.0,1.41,1.46,1.5
7239.0,1.44,1.46,1.52
7241.0,1.45,1.46,1.53
7243.0,1.43,1.46,1.52
7245.0,1.41,1.46,1.51
7247.0,1.41,1.46,1.52
7249.0,1.4,1.46,1.52
7251.0,1.38,1.46,1.52
7254.0,1.35,1.46,1.5
7256.0,1.35,1.46,1.5
7258.0,1.36,1.46,1.54
7259.0,1.4,1.46,1.57
7261.0,1.43,1.46,1.56
7263.0,1.43,1.46,1.55
7265.0,1.44,1.46,1.57
7267.0,1.44,1.46,1.58
7269.0,1.42,1.46,1.58
7271.0,1.4,1.46,1.59
7273.0,1.39,1.46,1.57
7275.0,1.4,1.46,1.56
7277.0,1.42,1.47,1.57
7279.0,1.45,1.46,1.57
7281.0,1.46,1.46,1.58
7283.0,1.46,1.46,1.57
7285.0,1.45,1.46,1.56
7287.0,1.45,1.46,1.55
7289.0,1.46,1.46,1.55
7291.0,1.44,1.47,1.51
7293.0,1.44,1.47,1.5
7296.0,1.45,1.47,1.51
7298.0,1.46,1.47,1.52
7300.0,1.48,1.46,1.53
7301.0,1.48,1.46,1.52
7303.0,1.47,1.46,1.5
7305.0,1.45,1.46,1.49
7307.0,1.44,1.46,1.49
7309.0,1.42,1.46,1.47
7311.0,1.43,1.46,1.46
7313.0,1.41,1.46,1.44
7315.0,1.42,1.46,1.45
7317.0,1.43,1.46,1.45
7319.0,1.45,1.46,1.47
7321.0,1.45,1.46,1.47
7323.0,1.44,1.46,1.47
7325.0,1.44,1.46,1.48
7327.0,1.43,1.46,1.49
7329.0,1.41,1.46,1.48
7331.0,1.41,1.46,1.46
7333.0,1.4,1.46,1.45
7335.0,1.4,1.46,1.45
7337.0,1.44,1.46,1.45
7340.0,1.47,1.46,1.46
7342.0,1.48,1.46,1.46
7343.0,1.47,1.46,1.46
7345.0,1.45,1.46,1.46
7347.0,1.45,1.46,1.47
7349.0,1.44,1.46,1.46
7351.0,1.43,1.46,1.46
7353.0,1.44,1.46,1.46
7355.0,1.45,1.46,1.5
7357.0,1.45,1.46,1.49
7359.0,1.46,1.46,1.5
7361.0,1.48,1.46,1.5
7363.0,1.48,1.46,1.46
7365.0,1.48,1.46,1.44
7367.0,1.49,1.46,1.44
7369.0,1.46,1.46,1.43
7371.0,1.45,1.46,1.44
7373.0,1.45,1.46,1.44
7375.0,1.45,1.46,1.45
7377.0,1.46,1.46,1.46
7379.0,1.48,1.46,1.49
7382.0,1.48,1.46,1.48
7384.0,1.47,1.45,1.47
7386.0,1.46,1.46,1.48
7387.0,1.45,1.46,1.48
7389.0,1.43,1.46,1.48
7391.0,1.42,1.46,1.52
7393.0,1.42,1.46,1.56
7395.0,1.43,1.46,1.56
7397.0,1.45,1.46,1.55
7399.0,1.47,1.45,1.54
7401.0,1.46,1.45,1.54
7403.0,1.45,1.45,1.53
7405.0,1.45,1.45,1.52
7407.0,1.43,1.45,1.49
7409.0,1.42,1.45,1.48
7411.0,1.39,1.45,1.5
7413.0,1.35,1.45,1.5
7415.0,1.33,1.45,1.51
7417.0,1.29,1.45,1.51
7419.0,1.26,1.45,1.49
7421.0,1.2,1.45,1.5
7424.0,1.15,1.45,1.48
7426.0,1.13,1.45,1.45
7428.0,1.14,1.45,1.45
7429.0,1.14,1.45,1.45
7431.0,1.15,1.45,1.45
7433.0,1.15,1.46,1.43
7435.0,1.18,1.46,1.47
7437.0,1.22,1.46,1.47
7439.0,1.26,1.45,1.47
7441.0,1.27,1.45,1.49
7443.0,1.29,1.45,1.47
7445.0,1.31,1.45,1.47
7447.0,1.33,1.45,1.46
7449.0,1.34,1.45,1.46
7451.0,1.35,1.45,1.44
7453.0,1.35,1.46,1.42
7455.0,1.38,1.46,1.44
7457.0,1.4,1.45,1.45
7459.0,1.45,1.45,1.47
7461.0,1.47,1.45,1.47
7463.0,1.46,1.45,1.46
7465.0,1.45,1.45,1.44
7468.0,1.45,1.45,1.43
7470.0,1.45,1.45,1.4
7471.0,1.43,1.45,1.39
7473.0,1.43,1.46,1.41
7475.0,1.45,1.46,1.41
7477.0,1.47,1.46,1.4
7479.0,1.5,1.45,1.42
7481.0,1.49,1.45,1.45
7483.0,1.5,1.45,1.44
7485.0,1.49,1.45,1.43
7487.0,1.47,1.45,1.42
7489.0,1.45,1.46,1.4
7491.0,1.45,1.46,1.42
7493.0,1.46,1.46,1.4
7495.0,1.48,1.46,1.42
7497.0,1.49,1.46,1.46
7499.0,1.52,1.46,1.45
7501.0,1.5,1.46,1.44
7503.0,1.5,1.46,1.44
7505.0,1.5,1.46,1.41
7507.0,1.5,1.46,1.4
7510.0,1.5,1.46,1.4
7512.0,1.5,1.46,1.38
7514.0,1.48,1.46,1.36
7515.0,1.5,1.46,1.35
7517.0,1.51,1.46,1.37
7519.0,1.53,1.46,1.37
7521.0,1.52,1.46,1.36
7523.0,1.52,1.46,1.36
7525.0,1.5,1.46,1.35
7527.0,1.49,1.46,1.34
7529.0,1.48,1.46,1.33
7531.0,1.47,1.46,1.32
7533.0,1.46,1.46,1.32
7535.0,1.48,1.46,1.34
7537.0,1.5,1.46,1.36
7539.0,1.52,1.46,1.4
7541.0,1.54,1.46,1.4
7543.0,1.55,1.46,1.41
7545.0,1.53,1.46,1.4
7547.0,1.53,1.46,1.38
7549.0,1.51,1.46,1.38
7552.0,1.51,1.46,1.38
7554.0,1.5,1.46,1.38
7556.0,1.51,1.46,1.4
7557.0,1.53,1.46,1.41
7559.0,1.53,1.46,1.42
7561.0,1.53,1.46,1.45
7563.0,1.52,1.46,1.51
7565.0,1.52,1.46,1.58
7567.0,1.53,1.46,1.66
7569.0,1.53,1.46,1.71
7571.0,1.53,1.46,1.71
7573.0,1.53,1.46,1.7
7575.0,1.55,1.46,1.72
7577.0,1.55,1.46,1.74
7579.0,1.57,1.46,1.75
7581.0,1.55,1.46,1.7
7583.0,1.57,1.46,1.7
7585.0,1.58,1.46,1.7
7587.0,1.57,1.46,1.68
7589.0,1.55,1.46,1.7
7591.0,1.53,1.46,1.69
7593.0,1.51,1.46,1.64
7596.0,1.53,1.46,1.56
7598.0,1.54,1.46,1.43
7599.0,1.55,1.45,1.35
7601.0,1.55,1.45,1.29
7603.0,1.55,1.45,1.26
7605.0,1.54,1.45,1.24
7607.0,1.52,1.46,1.24
7609.0,1.5,1.46,1.24
7611.0,1.48,1.46,1.25
7613.0,1.47,1.46,1.25
7615.0,1.5,1.46,1.3
7617.0,1.5,1.46,1.35
7619.0,1.5,1.45,1.4
7621.0,1.49,1.45,1.41
7623.0,1.47,1.45,1.41
7625.0,1.46,1.45,1.43
7627.0,1.45,1.45,1.45
7629.0,1.45,1.46,1.46
7631.0,1.43,1.45,1.46
7633.0,1.42,1.46,1.47
7635.0,1.45,1.46,1.49
7638.0,1.47,1.45,1.5
7640.0,1.5,1.45,1.54
7642.0,1.49,1.45,1.54
7643.0,1.47,1.45,1.51
7645.0,1.48,1.45,1.49
7647.0,1.47,1.45,1.48
7649.0,1.45,1.45,1.46
7651.0,1.44,1.45,1.45
7653.0,1.42,1.46,1.43
7655.0,1.44,1.45,1.45
7657.0,1.46,1.45,1.44
7659.0,1.48,1.45,1.45
7661.0,1.47,1.45,1.4
7663.0,1.47,1.45,1.4
7665.0,1.45,1.45,1.41
7667.0,1.45,1.45,1.39
7669.0,1.45,1.45,1.35
7671.0,1.43,1.45,1.33
7673.0,1.42,1.45,1.36
7675.0,1.43,1.45,1.39
7677.0,1.45,1.45,1.39
7680.0,1.47,1.45,1.42
7682.0,1.47,1.45,1.42
7684.0,1.46,1.45,1.41
7685.0,1.45,1.45,1.39
7687.0,1.45,1.45,1.4
7689.0,1.44,1.45,1.41
7691.0,1.42,1.45,1.41
7693.0,1.41,1.45,1.4
7695.0,1.42,1.45,1.43
7697.0,1.44,1.45,1.42
7699.0,1.44,1.45,1.46
7701.0,1.43,1.45,1.49
7703.0,1.44,1.45,1.49
7705.0,1.44,1.45,1.5
7707.0,1.41,1.45,1.49
7709.0,1.4,1.45,1.47
7711.0,1.39,1.45,1.48
7713.0,1.39,1.45,1.45
7715.0,1.4,1.45,1.46
7717.0,1.42,1.45,1.47
7719.0,1.44,1.45,1.47
7721.0,1.42,1.45,1.48
7724.0,1.41,1.45,1.47
7726.0,1.41,1.45,1.49
7727.0,1.41,1.45,1.46
7729.0,1.41,1.45,1.47
7731.0,1.41,1.45,1.46
7733.0,1.42,1.45,1.45
7735.0,1.45,1.45,1.47
7737.0,1.46,1.45,1.48
7739.0,1.48,1.45,1.48
7741.0,1.48,1.45,1.47
7743.0,1.47,1.45,1.47
7745.0,1.45,1.45,1.45
7747.0,1.46,1.45,1.42
7749.0,1.45,1.45,1.38
7751.0,1.45,1.46,1.36
7753.0,1.43,1.46,1.37
7755.0,1.42,1.46,1.38
7757.0,1.44,1.46,1.37
7759.0,1.47,1.45,1.36
7761.0,1.47,1.45,1.38
7763.0,1.45,1.46,1.39
7766.0,1.45,1.46,1.4
7768.0,1.45,1.46,1.39
7770.0,1.44,1.46,1.4
7771.0,1.43,1.46,1.42
7773.0,1.43,1.46,1.44
7775.0,1.43,1.46,1.46
7777.0,1.45,1.46,1.46
7779.0,1.48,1.46,1.47
7781.0,1.48,1.46,1.46
7783.0,1.48,1.46,1.47
7785.0,1.47,1.46,1.47
7787.0,1.46,1.46,1.51
7789.0,1.45,1.46,1.53
7791.0,1.44,1.46,1.52
7793.0,1.43,1.46,1.53
7795.0,1.43,1.46,1.55
7797.0,1.44,1.46,1.55
7799.0,1.45,1.46,1.55
7801.0,1.44,1.46,1.52
7803.0,1.43,1.46,1.52
7805.0,1.43,1.46,1.52
7808.0,1.42,1.46,1.51
7810.0,1.43,1.46,1.48
7812.0,1.41,1.46,1.47
7813.0,1.39,1.46,1.47
7815.0,1.4,1.46,1.45
7817.0,1.41,1.46,1.43
7819.0,1.43,1.46,1.43
7821.0,1.41,1.46,1.43
7823.0,1.39,1.46,1.42
7825.0,1.39,1.46,1.43
7827.0,1.39,1.46,1.44
7829.0,1.38,1.46,1.45
7831.0,1.38,1.46,1.42
7833.0,1.38,1.46,1.41
7835.0,1.38,1.46,1.41
7837.0,1.4,1.46,1.43
7839.0,1.44,1.46,1.45
7841.0,1.42,1.46,1.43
7843.0,1.41,1.46,1.43
7845.0,1.42,1.46,1.44
7847.0,1.41,1.46,1.45
7849.0,1.41,1.46,1.43
7852.0,1.41,1.46,1.41
7854.0,1.41,1.46,1.41
7855.0,1.42,1.46,1.42
7857.0,1.44,1.46,1.4
7859.0,1.43,1.46,1.41
7861.0,1.42,1.46,1.4
7863.0,1.41,1.46,1.43
7865.0,1.4,1.46,1.43
7867.0,1.37,1.46,1.43
7869.0,1.37,1.46,1.44
7871.0,1.37,1.46,1.44
7873.0,1.37,1.46,1.42
7875.0,1.38,1.46,1.42
7877.0,1.41,1.46,1.4
7879.0,1.43,1.46,1.38
7881.0,1.43,1.46,1.39
7883.0,1.43,1.46,1.38
7885.0,1.44,1.46,1.36
7887.0,1.43,1.46,1.37
7889.0,1.42,1.46,1.36
7891.0,1.41,1.46,1.36
7894.0,1.42,1.46,1.44
7896.0,1.45,1.46,1.5
7898.0,1.48,1.46,1.55
7899.0,1.49,1.46,1.57
7901.0,1.49,1.46,1.58
7903.0,1.46,1.46,1.62
7905.0,1.44,1.46,1.65
7907.0,1.43,1.46,1.69
7909.0,1.42,1.46,1.69
7911.0,1.42,1.46,1.68
7913.0,1.42,1.46,1.7
7915.0,1.42,1.46,1.71
7917.0,1.43,1.46,1.7
7919.0,1.45,1.46,1.68
7921.0,1.45,1.46,1.69
7923.0,1.43,1.46,1.67
7925.0,1.41,1.46,1.65
7927.0,1.39,1.46,1.61
7929.0,1.39,1.46,1.6
7931.0,1.38,1.46,1.57
7933.0,1.39,1.46,1.55
7936.0,1.41,1.46,1.54
7938.0,1.44,1.46,1.53
7940.0,1.45,1.46,1.53
7941.0,1.44,1.45,1.51
7943.0,1.42,1.46,1.5
7945.0,1.41,1.46,1.5
7947.0,1.41,1.45,1.5
7949.0,1.4,1.46,1.5
7951.0,1.4,1.46,1.5
7953.0,1.4,1.46,1.51
7955.0,1.41,1.46,1.51
7957.0,1.43,1.46,1.53
7959.0,1.45,1.45,1.52
7961.0,1.44,1.45,1.49
7963.0,1.43,1.45,1.48
7965.0,1.43,1.45,1.48
7967.0,1.42,1.46,1.43
7969.0,1.41,1.46,1.38
7971.0,1.41,1.46,1.35
7973.0,1.42,1.46,1.34
7975.0,1.42,1.46,1.34
7977.0,1.44,1.45,1.36
7980.0,1.45,1.45,1.37
7982.0,1.45,1.45,1.37
7983.0,1.45,1.45,1.36
7985.0,1.45,1.45,1.36
7987.0,1.44,1.46,1.35
7989.0,1.44,1.46,1.32
7991.0,1.42,1.46,1.31
7993.0,1.42,1.46,1.34
7995.0,1.44,1.46,1.35
7997.0,1.46,1.45,1.36
7999.0,1.47,1.45,1.37
8001.0,1.45,1.45,1.36
8003.0,1.44,1.45,1.35
8005.0,1.43,1.45,1.34
8007.0,1.43,1.45,1.35
8009.0,1.43,1.45,1.38
8011.0,1.43,1.45,1.37
8013.0,1.41,1.46,1.37
8015.0,1.44,1.45,1.38
8017.0,1.45,1.45,1.39
8019.0,1.47,1.45,1.37
8022.0,1.46,1.45,1.36
8024.0,1.45,1.45,1.34
8026.0,1.45,1.45,1.32
8027.0,1.44,1.45,1.31
8029.0,1.42,1.45,1.3
8031.0,1.42,1.45,1.31
8033.0,1.42,1.46,1.35
8035.0,1.43,1.45,1.35
8037.0,1.45,1.45,1.37
8039.0,1.45,1.45,1.37
8041.0,1.44,1.45,1.38
8043.0,1.43,1.45,1.39
8045.0,1.41,1.45,1.39
8047.0,1.4,1.45,1.38
8049.0,1.4,1.45,1.36
8051.0,1.4,1.45,1.35
8053.0,1.41,1.45,1.36
8055.0,1.41,1.45,1.38
8057.0,1.42,1.45,1.39
8059.0,1.44,1.45,1.4
8061.0,1.43,1.45,1.41
8064.0,1.43,1.45,1.39
8066.0,1.43,1.45,1.38
8068.0,1.42,1.45,1.36
8069.0,1.41,1.45,1.36
8071.0,1.4,1.46,1.36
8073.0,1.39,1.45,1.36
8075.0,1.4,1.45,1.37
8077.0,1.42,1.45,1.36
8079.0,1.44,1.45,1.35
8081.0,1.43,1.45,1.34
8083.0,1.43,1.45,1.34
8085.0,1.43,1.45,1.34
8087.0,1.42,1.45,1.32
8089.0,1.41,1.45,1.3
8091.0,1.41,1.46,1.3
8093.0,1.41,1.46,1.3
8095.0,1.41,1.46,1.31
8097.0,1.43,1.45,1.32
8099.0,1.45,1.45,1.31
8101.0,1.45,1.45,1.31
8103.0,1.45,1.45,1.34
8105.0,1.44,1.45,1.35
8108.0,1.44,1.45,1.35
8110.0,1.43,1.46,1.35
8111.0,1.42,1.46,1.35
8113.0,1.44,1.46,1.34
8115.0,1.44,1.46,1.35
8117.0,1.45,1.46,1.4
8119.0,1.46,1.45,1.43
8121.0,1.46,1.45,1.43
8123.0,1.46,1.45,1.45
8125.0,1.45,1.46,1.46
8127.0,1.44,1.45,1.45
8129.0,1.43,1.46,1.46
8131.0,1.4,1.46,1.45
8133.0,1.41,1.46,1.44
8135.0,1.42,1.46,1.42
8137.0,1.44,1.46,1.44
8139.0,1.45,1.45,1.45
8141.0,1.45,1.46,1.43
8143.0,1.45,1.46,1.43
8145.0,1.43,1.46,1.43
8147.0,1.42,1.46,1.45
8150.0,1.43,1.46,1.46
8152.0,1.43,1.46,1.46
8154.0,1.45,1.46,1.46
8155.0,1.48,1.46,1.46
8157.0,1.49,1.46,1.48
8159.0,1.49,1.46,1.48
8161.0,1.48,1.46,1.47
8163.0,1.46,1.46,1.5
8165.0,1.45,1.46,1.51
8167.0,1.44,1.46,1.52
8169.0,1.44,1.46,1.52
8171.0,1.42,1.46,1.54
8173.0,1.42,1.46,1.57
8175.0,1.42,1.46,1.58
8177.0,1.44,1.46,1.61
8179.0,1.45,1.46,1.6
8181.0,1.45,1.46,1.6
8183.0,1.45,1.45,1.59
8185.0,1.45,1.46,1.61
8187.0,1.44,1.46,1.6
8189.0,1.43,1.46,1.6
8192.0,1.42,1.46,1.59
8194.0,1.42,1.46,1.59
8196.0,1.43,1.46,1.56
8197.0,1.44,1.46,1.57
8199.0,1.45,1.45,1.57
8201.0,1.45,1.46,1.57
8203.0,1.46,1.46,1.56
8205.0,1.45,1.46,1.54
8207.0,1.44,1.46,1.53
8209.0,1.43,1.46,1.51
8211.0,1.42,1.46,1.49
8213.0,1.44,1.46,1.48
8215.0,1.46,1.46,1.46
8217.0,1.48,1.46,1.45
8219.0,1.5,1.45,1.41
8221.0,1.48,1.45,1.39
8223.0,1.47,1.45,1.36
8225.0,1.45,1.45,1.34
8227.0,1.45,1.46,1.33
8229.0,1.43,1.46,1.31
8231.0,1.43,1.46,1.3
8233.0,1.44,1.46,1.3
8236.0,1.44,1.46,1.33
8238.0,1.45,1.45,1.36
8239.0,1.45,1.45,1.36
8241.0,1.45,1.45,1.36
8243.0,1.43,1.45,1.35
8245.0,1.43,1.45,1.33
8247.0,1.42,1.45,1.33
8249.0,1.41,1.45,1.31
8251.0,1.4,1.46,1.32
8253.0,1.4,1.46,1.33
8255.0,1.41,1.45,1.34
8257.0,1.42,1.45,1.35
8259.0,1.43,1.45,1.38
8261.0,1.43,1.45,1.39
8263.0,1.42,1.45,1.37
8265.0,1.41,1.45,1.34
8267.0,1.38,1.45,1.32
8269.0,1.37,1.45,1.35
8271.0,1.37,1.45,1.33
8273.0,1.39,1.46,1.33
8275.0,1.41,1.45,1.33
8278.0,1.43,1.45,1.33
8280.0,1.43,1.45,1.33
8282.0,1.43,1.45,1.32
8283.0,1.42,1.45,1.28
8285.0,1.4,1.45,1.26
8287.0,1.39,1.45,1.24
8289.0,1.38,1.45,1.23
8291.0,1.36,1.45,1.22
8293.0,1.36,1.45,1.25
8295.0,1.38,1.45,1.26
8297.0,1.4,1.45,1.3
8299.0,1.42,1.45,1.32
8301.0,1.42,1.45,1.33
8303.0,1.41,1.45,1.33
8305.0,1.4,1.45,1.32
8307.0,1.41,1.45,1.34
8309.0,1.42,1.45,1.36
8311.0,1.39,1.45,1.36
8313.0,1.38,1.45,1.37
8315.0,1.4,1.45,1.39
8317.0,1.42,1.45,1.4
8320.0,1.43,1.45,1.39
8322.0,1.42,1.45,1.38
8324.0,1.39,1.45,1.39
8325.0,1.38,1.45,1.39
8327.0,1.37,1.45,1.36
8329.0,1.37,1.45,1.35
8331.0,1.37,1.45,1.33
8333.0,1.4,1.46,1.36
8335.0,1.42,1.45,1.37
8337.0,1.44,1.45,1.38
8339.0,1.45,1.45,1.39
8341.0,1.45,1.45,1.4
8343.0,1.44,1.45,1.38
8345.0,1.43,1.45,1.38
8347.0,1.42,1.45,1.36
8349.0,1.42,1.46,1.37
8351.0,1.41,1.46,1.38
8353.0,1.43,1.46,1.4
8355.0,1.45,1.46,1.41
8357.0,1.46,1.45,1.42
8359.0,1.46,1.45,1.43
8361.0,1.44,1.45,1.45
8364.0,1.43,1.45,1.47
8366.0,1.44,1.46,1.48
8367.0,1.43,1.46,1.49
8369.0,1.43,1.46,1.48
8371.0,1.43,1.46,1.5
8373.0,1.44,1.46,1.53
8375.0,1.45,1.46,1.54
8377.0,1.47,1.46,1.56
8379.0,1.46,1.46,1.57
8381.0,1.45,1.46,1.58
8383.0,1.45,1.46,1.61
8385.0,1.44,1.46,1.59
8387.0,1.43,1.46,1.58
8389.0,1.43,1.46,1.56
8391.0,1.42,1.46,1.54
8393.0,1.44,1.46,1.55
8395.0,1.45,1.46,1.56
8397.0,1.47,1.46,1.55
8399.0,1.46,1.45,1.53
8401.0,1.46,1.46,1.49
8403.0,1.45,1.46,1.48
8406.0,1.45,1.46,1.47
8408.0,1.45,1.46,1.47
8410.0,1.44,1.46,1.47
8411.0,1.45,1.46,1.44
8413.0,1.46,1.46,1.45
8415.0,1.47,1.46,1.47
8417.0,1.47,1.46,1.48
8419.0,1.48,1.46,1.45
8421.0,1.48,1.46,1.45
8423.0,1.47,1.46,1.44
8425.0,1.47,1.46,1.43
8427.0,1.46,1.46,1.43
8429.0,1.45,1.46,1.43
8431.0,1.44,1.46,1.41
8433.0,1.45,1.46,1.4
8435.0,1.47,1.46,1.44
8437.0,1.49,1.46,1.46
8439.0,1.5,1.46,1.46
8441.0,1.49,1.46,1.46
8443.0,1.49,1.46,1.45
8445.0,1.47,1.46,1.42
8448.0,1.46,1.46,1.39
8450.0,1.44,1.46,1.4
8452.0,1.44,1.46,1.43
8453.0,1.46,1.46,1.52
8455.0,1.48,1.46,1.54
8457.0,1.5,1.46,1.54
8459.0,1.49,1.46,1.53
8461.0,1.48,1.46,1.55
8463.0,1.47,1.46,1.55
8465.0,1.46,1.46,1.55
8467.0,1.44,1.46,1.53
8469.0,1.42,1.46,1.51
8471.0,1.42,1.46,1.49
8473.0,1.43,1.46,1.48
8475.0,1.44,1.46,1.49
8477.0,1.46,1.46,1.5
8479.0,1.45,1.46,1.49
8481.0,1.46,1.46,1.49
8483.0,1.45,1.46,1.5
8485.0,1.45,1.46,1.5
8487.0,1.43,1.46,1.48
8489.0,1.41,1.46,1.47
8492.0,1.4,1.46,1.48
8494.0,1.42,1.46,1.46
8495.0,1.44,1.46,1.44
8497.0,1.47,1.46,1.44
8499.0,1.47,1.46,1.43
8501.0,1.45,1.46,1.39
8503.0,1.44,1.46,1.37
8505.0,1.43,1.46,1.37
8507.0,1.43,1.46,1.37
8509.0,1.43,1.46,1.37
8511.0,1.42,1.46,1.37
8513.0,1.44,1.46,1.39
8515.0,1.45,1.46,1.41
8517.0,1.45,1.46,1.44
8519.0,1.45,1.46,1.43
8521.0,1.45,1.46,1.44
8523.0,1.43,1.46,1.44
8525.0,1.43,1.46,1.45
8527.0,1.41,1.46,1.46
8529.0,1.39,1.46,1.48
8531.0,1.4,1.46,1.49
8534.0,1.42,1.46,1.49
8536.0,1.42,1.46,1.53
8538.0,1.43,1.46,1.55
8539.0,1.43,1.46,1.52
8541.0,1.42,1.46,1.52
8543.0,1.41,1.46,1.52
8545.0,1.41,1.46,1.51
8547.0,1.4,1.46,1.52
8549.0,1.39,1.46,1.51
8551.0,1.38,1.46,1.5
8553.0,1.4,1.46,1.52
8555.0,1.42,1.46,1.53
8557.0,1.45,1.46,1.54
8559.0,1.45,1.46,1.56
8561.0,1.44,1.46,1.57
8563.0,1.42,1.46,1.56
8565.0,1.41,1.46,1.54
8567.0,1.41,1.46,1.55
8569.0,1.41,1.46,1.54
8571.0,1.41,1.46,1.52
8573.0,1.43,1.46,1.53
8576.0,1.43,1.46,1.55
8578.0,1.44,1.46,1.52
8580.0,1.42,1.46,1.51
8581.0,1.41,1.46,1.51
8583.0,1.4,1.46,1.48
8585.0,1.4,1.46,1.46
8587.0,1.39,1.46,1.45
8589.0,1.37,1.46,1.44
8591.0,1.37,1.46,1.42
8593.0,1.41,1.46,1.42
8595.0,1.42,1.46,1.43
8597.0,1.45,1.46,1.45
8599.0,1.41,1.46,1.45
8601.0,1.38,1.46,1.44
8603.0,1.37,1.46,1.42
8605.0,1.37,1.46,1.42
8607.0,1.36,1.46,1.41
8609.0,1.35,1.46,1.39
8611.0,1.34,1.46,1.36
8613.0,1.37,1.46,1.37
8615.0,1.39,1.46,1.39
8617.0,1.42,1.46,1.39
8620.0,1.43,1.46,1.35
8622.0,1.43,1.46,1.35
8624.0,1.42,1.46,1.37
8625.0,1.42,1.46,1.32
8627.0,1.4,1.46,1.27
8629.0,1.39,1.46,1.25
8631.0,1.39,1.46,1.26
8633.0,1.4,1.46,1.26
8635.0,1.42,1.46,1.25
8637.0,1.44,1.45,1.25
8639.0,1.43,1.45,1.21
8641.0,1.42,1.45,1.2
8643.0,1.41,1.45,1.2
8645.0,1.4,1.45,1.2
8647.0,1.39,1.45,1.23
8649.0,1.38,1.46,1.24
8651.0,1.4,1.46,1.25
8653.0,1.44,1.46,1.28
8655.0,1.46,1.45,1.34
8657.0,1.49,1.45,1.35
8659.0,1.49,1.45,1.35
8662.0,1.48,1.45,1.35
8664.0,1.47,1.45,1.35
8666.0,1.45,1.45,1.32
8667.0,1.44,1.45,1.3
8669.0,1.43,1.45,1.29
8671.0,1.43,1.45,1.3
8673.0,1.45,1.45,1.32
8675.0,1.46,1.45,1.34
8677.0,1.46,1.45,1.35
8679.0,1.45,1.45,1.35
8681.0,1.45,1.45,1.35
8683.0,1.45,1.45,1.35
8685.0,1.44,1.45,1.34
8687.0,1.44,1.45,1.33
8689.0,1.45,1.45,1.34
8691.0,1.44,1.45,1.33
8693.0,1.45,1.45,1.33
8695.0,1.46,1.45,1.34
8697.0,1.47,1.45,1.34
8699.0,1.46,1.45,1.33
8701.0,1.45,1.45,1.35
8704.0,1.43,1.45,1.36
8706.0,1.41,1.45,1.37
8708.0,1.41,1.45,1.36
8710.0,1.39,1.45,1.36
8711.0,1.38,1.45,1.37
8713.0,1.4,1.46,1.39
8715.0,1.42,1.45,1.42
8717.0,1.43,1.45,1.44
8719.0,1.44,1.45,1.42
8721.0,1.42,1.45,1.41
8723.0,1.41,1.45,1.42
8725.0,1.4,1.45,1.43
8727.0,1.4,1.45,1.43
8729.0,1.4,1.46,1.44
8731.0,1.41,1.45,1.44
8733.0,1.44,1.46,1.44
8735.0,1.45,1.45,1.43
8737.0,1.46,1.45,1.43
8739.0,1.45,1.45,1.45
8741.0,1.43,1.45,1.45
8743.0,1.42,1.45,1.48
8745.0,1.43,1.45,1.51
8748.0,1.42,1.46,1.49
8750.0,1.4,1.46,1.47
8752.0,1.4,1.46,1.48
8753.0,1.42,1.46,1.49
8755.0,1.45,1.46,1.51
8757.0,1.46,1.45,1.49
8759.0,1.46,1.45,1.48
8761.0,1.46,1.45,1.47
8763.0,1.45,1.45,1.49
8765.0,1.45,1.45,1.5
8767.0,1.44,1.46,1.48
8769.0,1.42,1.46,1.46
8771.0,1.42,1.46,1.49
8773.0,1.43,1.46,1.51
8775.0,1.45,1.46,1.53
8777.0,1.46,1.45,1.54
8779.0,1.45,1.45,1.53
8781.0,1.44,1.45,1.53
8783.0,1.46,1.46,1.52
8785.0,1.48,1.46,1.5
8787.0,1.37,1.46,1.47
8790.0,1.34,1.46,1.46
8792.0,1.38,1.46,1.48
8794.0,1.43,1.46,1.49
8795.0,1.45,1.46,1.51
8797.0,1.45,1.45,1.53
8799.0,1.44,1.46,1.53
8801.0,1.45,1.46,1.53
8803.0,1.47,1.46,1.5
8805.0,1.48,1.46,1.5
8807.0,1.45,1.46,1.52
8809.0,1.49,1.46,1.51
8811.0,1.45,1.46,1.51
8813.0,1.45,1.46,1.52
8815.0,1.45,1.46,1.51
8817.0,1.47,1.46,1.48
8819.0,1.46,1.46,1.46
8821.0,1.44,1.46,1.45
8823.0,1.44,1.46,1.46
8825.0,1.44,1.46,1.43
8827.0,1.44,1.46,1.42
8829.0,1.44,1.46,1.41
8832.0,1.43,1.46,1.44
8834.0,1.44,1.46,1.46
8836.0,1.46,1.46,1.49
8838.0,1.47,1.45,1.48
8839.0,1.44,1.45,1.49
8841.0,1.43,1.46,1.47
8843.0,1.43,1.46,1.47
8845.0,1.41,1.46,1.45
8847.0,1.4,1.46,1.45
8849.0,1.4,1.46,1.45
8851.0,1.41,1.46,1.45
8853.0,1.44,1.46,1.45
8855.0,1.45,1.46,1.44
8857.0,1.45,1.46,1.42
8859.0,1.44,1.46,1.4
8861.0,1.44,1.46,1.37
8863.0,1.43,1.46,1.37
8865.0,1.44,1.46,1.38
8867.0,1.45,1.46,1.4
8869.0,1.44,1.46,1.39
8871.0,1.43,1.46,1.39
8873.0,1.46,1.46,1.41
8876.0,1.48,1.46,1.44
8878.0,1.48,1.46,1.44
8880.0,1.47,1.46,1.42
8881.0,1.46,1.45,1.42
8883.0,1.46,1.46,1.42
8885.0,1.45,1.46,1.42
8887.0,1.45,1.46,1.44
8889.0,1.44,1.46,1.43
8891.0,1.45,1.46,1.45
8893.0,1.45,1.46,1.48
8895.0,1.45,1.46,1.52
8897.0,1.46,1.45,1.52
8899.0,1.46,1.45,1.5
8901.0,1.45,1.46,1.48
8903.0,1.45,1.46,1.49
8905.0,1.45,1.46,1.48
8907.0,1.45,1.46,1.48
8909.0,1.44,1.46,1.47
8911.0,1.44,1.46,1.46
8913.0,1.44,1.46,1.48
8915.0,1.46,1.46,1.49
8918.0,1.47,1.46,1.48
8920.0,1.46,1.46,1.46
8922.0,1.45,1.45,1.46
8923.0,1.43,1.45,1.45
8925.0,1.41,1.46,1.44
8927.0,1.41,1.46,1.41
8929.0,1.37,1.46,1.39
8931.0,1.38,1.46,1.4
8933.0,1.39,1.46,1.41
8935.0,1.41,1.46,1.44
8937.0,1.41,1.45,1.42
8939.0,1.4,1.46,1.4
8941.0,1.38,1.46,1.38
8943.0,1.39,1.46,1.38
8945.0,1.4,1.46,1.37
8947.0,1.42,1.46,1.38
8949.0,1.44,1.46,1.4
8951.0,1.44,1.46,1.4
8953.0,1.42,1.46,1.4
8955.0,1.41,1.46,1.41
8957.0,1.43,1.45,1.42
8960.0,1.43,1.45,1.43
8962.0,1.41,1.45,1.42
8964.0,1.42,1.45,1.42
8966.0,1.41,1.46,1.4
8967.0,1.41,1.46,1.38
8969.0,1.4,1.46,1.37
8971.0,1.4,1.46,1.38
8973.0,1.41,1.46,1.39
8975.0,1.44,1.46,1.39
8977.0,1.46,1.45,1.4
8979.0,1.46,1.45,1.37
8981.0,1.45,1.46,1.39
8983.0,1.46,1.46,1.4
8985.0,1.45,1.46,1.42
8987.0,1.45,1.46,1.44
8989.0,1.44,1.46,1.46
8991.0,1.45,1.46,1.46
8993.0,1.47,1.46,1.47
8995.0,1.47,1.46,1.48
8997.0,1.47,1.46,1.49
8999.0,1.46,1.45,1.48
9001.0,1.45,1.46,1.43
9004.0,1.44,1.46,1.39
9006.0,1.45,1.46,1.4
9008.0,1.45,1.46,1.42
9009.0,1.44,1.46,1.42
9011.0,1.45,1.46,1.44
9013.0,1.47,1.46,1.45
9015.0,1.49,1.46,1.45
9017.0,1.46,1.46,1.43
9019.0,1.46,1.45,1.42
9021.0,1.47,1.45,1.42
9023.0,1.44,1.45,1.41
9025.0,1.43,1.46,1.4
9027.0,1.44,1.46,1.4
9029.0,1.43,1.46,1.39
9031.0,1.43,1.46,1.39
9033.0,1.45,1.46,1.4
9035.0,1.45,1.46,1.42
9037.0,1.45,1.45,1.44
9039.0,1.44,1.45,1.43
9041.0,1.44,1.46,1.42
9043.0,1.42,1.46,1.42
9046.0,1.41,1.46,1.42
9048.0,1.42,1.46,1.41
9050.0,1.41,1.46,1.39
9051.0,1.42,1.46,1.4
9053.0,1.45,1.46,1.41
9055.0,1.45,1.46,1.41
9057.0,1.46,1.45,1.39
9059.0,1.46,1.45,1.39
9061.0,1.45,1.45,1.37
9063.0,1.45,1.46,1.38
9065.0,1.44,1.46,1.39
9067.0,1.44,1.46,1.39
9069.0,1.44,1.46,1.38
9071.0,1.43,1.46,1.37
9073.0,1.43,1.46,1.36
9075.0,1.46,1.46,1.38
9077.0,1.47,1.45,1.39
9079.0,1.46,1.45,1.35
9081.0,1.44,1.45,1.34
9083.0,1.42,1.45,1.32
9085.0,1.4,1.46,1.3
9088.0,1.4,1.46,1.31
9090.0,1.4,1.46,1.29
9092.0,1.4,1.46,1.3
9094.0,1.4,1.46,1.3
9095.0,1.43,1.46,1.31
9097.0,1.45,1.45,1.31
9099.0,1.44,1.45,1.33
9101.0,1.45,1.46,1.33
9103.0,1.44,1.45,1.34
9105.0,1.43,1.46,1.35
9107.0,1.42,1.46,1.36
9109.0,1.41,1.46,1.37
9111.0,1.42,1.46,1.4
9113.0,1.43,1.46,1.41
9115.0,1.44,1.45,1.44
9117.0,1.43,1.45,1.44
9119.0,1.44,1.46,1.44
9121.0,1.44,1.45,1.45
9123.0,1.45,1.46,1.45
9125.0,1.46,1.46,1.45
9127.0,1.46,1.46,1.46
9129.0,1.44,1.46,1.47
9132.0,1.44,1.46,1.48
9134.0,1.45,1.46,1.52
9136.0,1.47,1.46,1.53
9137.0,1.47,1.45,1.54
9139.0,1.46,1.45,1.51
9141.0,1.46,1.46,1.51
9143.0,1.44,1.45,1.48
9145.0,1.4,1.46,1.45
9147.0,1.41,1.46,1.43
9149.0,1.4,1.46,1.4
9151.0,1.43,1.46,1.41
9153.0,1.45,1.46,1.42
9155.0,1.46,1.45,1.45
9157.0,1.47,1.45,1.45
9159.0,1.47,1.45,1.46
9161.0,1.47,1.45,1.46
9163.0,1.45,1.45,1.46
9165.0,1.42,1.45,1.46
9167.0,1.43,1.46,1.48
9169.0,1.43,1.46,1.49
9171.0,1.45,1.46,1.5
9174.0,1.47,1.46,1.5
9176.0,1.47,1.45,1.48
9178.0,1.47,1.45,1.48
9179.0,1.47,1.45,1.5
9181.0,1.47,1.45,1.5
9183.0,1.45,1.45,1.51
9185.0,1.45,1.45,1.53
9187.0,1.43,1.46,1.53
9189.0,1.41,1.46,1.53
9191.0,1.43,1.46,1.54
9193.0,1.45,1.46,1.55
9195.0,1.47,1.45,1.57
9197.0,1.46,1.45,1.55
9199.0,1.46,1.45,1.54
9201.0,1.45,1.45,1.55
9203.0,1.45,1.45,1.54
9205.0,1.44,1.46,1.54
9207.0,1.44,1.46,1.55
9209.0,1.43,1.46,1.55
9211.0,1.44,1.46,1.54
9213.0,1.44,1.46,1.55
9216.0,1.46,1.46,1.55
9218.0,1.45,1.45,1.55
9220.0,1.45,1.45,1.54
9222.0,1.44,1.45,1.52
9223.0,1.42,1.45,1.5
9225.0,1.41,1.46,1.48
9227.0,1.41,1.46,1.47
9229.0,1.39,1.46,1.49
9231.0,1.42,1.46,1.5
9233.0,1.45,1.46,1.51
9235.0,1.48,1.45,1.5
9237.0,1.49,1.45,1.5
9239.0,1.48,1.45,1.5
9241.0,1.47,1.45,1.46
9243.0,1.47,1.45,1.44
9245.0,1.45,1.46,1.41
9247.0,1.43,1.46,1.41
9249.0,1.44,1.46,1.42
9251.0,1.45,1.46,1.44
9253.0,1.46,1.46,1.46
9255.0,1.48,1.45,1.47
9257.0,1.47,1.45,1.45
9260.0,1.46,1.45,1.45
9262.0,1.45,1.45,1.45
9264.0,1.42,1.45,1.44
9265.0,1.41,1.46,1.41
9267.0,1.4,1.46,1.38
9269.0,1.41,1.46,1.37
9271.0,1.42,1.46,1.36
9273.0,1.43,1.46,1.37
9275.0,1.45,1.45,1.36
9277.0,1.46,1.45,1.35
9279.0,1.46,1.45,1.35
9281.0,1.47,1.45,1.36
9283.0,1.46,1.45,1.35
9285.0,1.43,1.46,1.34
9287.0,1.41,1.46,1.33
9289.0,1.4,1.46,1.35
9291.0,1.43,1.46,1.37
9293.0,1.44,1.46,1.4
9295.0,1.44,1.46,1.42
9297.0,1.43,1.45,1.41
9299.0,1.43,1.45,1.4
9302.0,1.43,1.45,1.38
9304.0,1.44,1.45,1.36
9306.0,1.42,1.46,1.36
9307.0,1.42,1.46,1.37
9309.0,1.41,1.46,1.37
9311.0,1.42,1.46,1.38
9313.0,1.43,1.46,1.37
9315.0,1.45,1.46,1.37
9317.0,1.45,1.45,1.35
9319.0,1.43,1.45,1.34
9321.0,1.44,1.45,1.34
9323.0,1.44,1.46,1.34
9325.0,1.43,1.46,1.35
9327.0,1.42,1.46,1.35
9329.0,1.41,1.46,1.36
9331.0,1.42,1.46,1.36
9333.0,1.45,1.46,1.37
9335.0,1.46,1.45,1.36
9337.0,1.46,1.45,1.4
9339.0,1.44,1.45,1.41
9341.0,1.43,1.45,1.42
9344.0,1.42,1.45,1.42
9346.0,1.42,1.46,1.43
9348.0,1.41,1.46,1.45
9350.0,1.4,1.46,1.45
9351.0,1.42,1.46,1.46
9353.0,1.43,1.46,1.5
9355.0,1.45,1.45,1.5
9357.0,1.46,1.45,1.52
9359.0,1.46,1.45,1.5
9361.0,1.44,1.45,1.48
9363.0,1.42,1.45,1.48
9365.0,1.42,1.46,1.46
9367.0,1.41,1.46,1.45
9369.0,1.42,1.46,1.45
9371.0,1.43,1.46,1.45
9373.0,1.44,1.46,1.47
9375.0,1.46,1.45,1.47
9377.0,1.46,1.45,1.5
9379.0,1.46,1.45,1.51
9381.0,1.46,1.45,1.49
9383.0,1.44,1.45,1.47
9385.0,1.43,1.46,1.45
9388.0,1.43,1.46,1.44
9390.0,1.43,1.46,1.45
9392.0,1.45,1.46,1.43
9393.0,1.46,1.46,1.44
9395.0,1.46,1.45,1.47
9397.0,1.46,1.45,1.46
9399.0,1.46,1.45,1.45
9401.0,1.45,1.45,1.44
9403.0,1.45,1.45,1.42
9405.0,1.44,1.46,1.41
9407.0,1.44,1.46,1.41
9409.0,1.43,1.46,1.43
9411.0,1.42,1.46,1.41
9413.0,1.44,1.45,1.41
9415.0,1.46,1.45,1.43
9417.0,1.44,1.45,1.4
9419.0,1.42,1.45,1.38
9421.0,1.42,1.45,1.38
9423.0,1.42,1.45,1.39
9425.0,1.41,1.46,1.37
9427.0,1.4,1.46,1.34
9430.0,1.39,1.46,1.35
9432.0,1.41,1.46,1.37
9434.0,1.43,1.45,1.39
9435.0,1.45,1.45,1.4
9437.0,1.45,1.45,1.39
9439.0,1.43,1.45,1.38
9441.0,1.41,1.45,1.37
9443.0,1.39,1.46,1.37
9445.0,1.38,1.46,1.37
9447.0,1.38,1.46,1.37
9449.0,1.36,1.46,1.39
9451.0,1.38,1.46,1.41
9453.0,1.41,1.46,1.41
9455.0,1.43,1.45,1.4
9457.0,1.44,1.45,1.4
9459.0,1.44,1.45,1.4
9461.0,1.44,1.45,1.39
9463.0,1.43,1.45,1.39
9465.0,1.41,1.46,1.37
9467.0,1.42,1.46,1.36
9469.0,1.42,1.46,1.36
9472.0,1.43,1.46,1.38
9474.0,1.42,1.45,1.4
9476.0,1.41,1.45,1.42
9478.0,1.4,1.45,1.44
9479.0,1.4,1.45,1.44
9481.0,1.4,1.46,1.43
9483.0,1.39,1.45,1.42
9485.0,1.37,1.46,1.37
9487.0,1.36,1.46,1.35
9489.0,1.36,1.46,1.34
9491.0,1.39,1.46,1.34
9493.0,1.4,1.46,1.35
9495.0,1.42,1.45,1.38
9497.0,1.42,1.45,1.38
9499.0,1.43,1.45,1.37
9501.0,1.43,1.45,1.41
9503.0,1.42,1.46,1.42
9505.0,1.4,1.46,1.42
9507.0,1.41,1.46,1.42
9509.0,1.41,1.46,1.41
9511.0,1.43,1.46,1.42
9513.0,1.45,1.46,1.43
9516.0,1.47,1.45,1.45
9518.0,1.46,1.45,1.45
9520.0,1.45,1.45,1.47
9521.0,1.45,1.46,1.46
9523.0,1.43,1.46,1.47
9525.0,1.42,1.46,1.51
9527.0,1.4,1.46,1.54
9529.0,1.41,1.46,1.54
9531.0,1.43,1.46,1.55
9533.0,1.45,1.46,1.56
9535.0,1.46,1.46,1.59
9537.0,1.46,1.45,1.58
9539.0,1.45,1.46,1.56
9541.0,1.43,1.46,1.55
9543.0,1.41,1.46,1.54
9545.0,1.39,1.46,1.54
9547.0,1.4,1.46,1.53
9549.0,1.4,1.46,1.53
9551.0,1.42,1.46,1.52
9553.0,1.45,1.46,1.51
9555.0,1.46,1.46,1.51
9558.0,1.44,1.46,1.45
9560.0,1.45,1.46,1.41
9562.0,1.43,1.46,1.39
9563.0,1.41,1.46,1.37
9565.0,1.41,1.46,1.37
9567.0,1.41,1.46,1.35
9569.0,1.41,1.46,1.37
9571.0,1.43,1.46,1.39
9573.0,1.45,1.46,1.4
9575.0,1.46,1.45,1.4
9577.0,1.45,1.46,1.39
9579.0,1.44,1.46,1.39
9581.0,1.45,1.46,1.41
9583.0,1.45,1.46,1.4
9585.0,1.42,1.46,1.4
9587.0,1.42,1.46,1.39
9589.0,1.42,1.46,1.38
9591.0,1.43,1.46,1.4
9593.0,1.43,1.46,1.39
9595.0,1.44,1.46,1.4
9597.0,1.45,1.46,1.41
9600.0,1.45,1.46,1.41
9602.0,1.44,1.46,1.4
9604.0,1.43,1.46,1.38
9606.0,1.42,1.46,1.38
9607.0,1.42,1.46,1.37
9609.0,1.43,1.46,1.38
9611.0,1.43,1.46,1.39
9613.0,1.45,1.46,1.43
9615.0,1.47,1.46,1.47
9617.0,1.46,1.46,1.48
9619.0,1.46,1.46,1.48
9621.0,1.45,1.46,1.47
9623.0,1.45,1.46,1.47
9625.0,1.45,1.46,1.47
9627.0,1.44,1.46,1.45
9629.0,1.45,1.46,1.42
9631.0,1.46,1.46,1.42
9633.0,1.48,1.46,1.45
9635.0,1.49,1.46,1.45
9637.0,1.48,1.46,1.43
9639.0,1.45,1.46,1.43
9641.0,1.43,1.46,1.43
9644.0,1.43,1.46,1.43
9646.0,1.43,1.46,1.46
9648.0,1.41,1.46,1.46
9649.0,1.42,1.46,1.45
9651.0,1.44,1.46,1.46
9653.0,1.45,1.46,1.48
9655.0,1.46,1.46,1.47
9657.0,1.46,1.46,1.45
9659.0,1.46,1.46,1.44
9661.0,1.45,1.46,1.45
9663.0,1.44,1.46,1.44
9665.0,1.41,1.46,1.45
9667.0,1.41,1.46,1.45
9669.0,1.42,1.46,1.44
9671.0,1.44,1.46,1.47
9673.0,1.46,1.46,1.5
9675.0,1.48,1.46,1.5
9677.0,1.48,1.46,1.5
9679.0,1.47,1.46,1.51
9681.0,1.46,1.46,1.52
9683.0,1.44,1.46,1.51
9686.0,1.43,1.46,1.51
9688.0,1.43,1.46,1.48
9690.0,1.45,1.46,1.47
9692.0,1.46,1.46,1.47
9693.0,1.47,1.46,1.49
9695.0,1.47,1.46,1.5
9697.0,1.45,1.46,1.49
9699.0,1.45,1.46,1.49
9701.0,1.45,1.46,1.49
9703.0,1.44,1.46,1.5
9705.0,1.44,1.46,1.5
9707.0,1.42,1.46,1.47
9709.0,1.43,1.46,1.47
9711.0,1.44,1.46,1.5
9713.0,1.46,1.46,1.49
9715.0,1.48,1.45,1.47
9717.0,1.48,1.45,1.46
9719.0,1.46,1.45,1.46
9721.0,1.45,1.46,1.46
9723.0,1.44,1.46,1.44
9725.0,1.43,1.46,1.43
9728.0,1.43,1.46,1.44
9730.0,1.43,1.46,1.47
9732.0,1.44,1.46,1.48
9734.0,1.45,1.46,1.47
9735.0,1.46,1.46,1.47
9737.0,1.46,1.46,1.47
9739.0,1.44,1.46,1.47
9741.0,1.44,1.46,1.49
9743.0,1.44,1.46,1.5
9745.0,1.43,1.46,1.5
9747.0,1.43,1.46,1.49
9749.0,1.44,1.46,1.49
9751.0,1.45,1.46,1.5
9753.0,1.46,1.46,1.5
9755.0,1.47,1.46,1.49
9757.0,1.46,1.45,1.5
9759.0,1.45,1.46,1.5
9761.0,1.45,1.46,1.49
9763.0,1.44,1.46,1.49
9765.0,1.42,1.46,1.49
9767.0,1.41,1.46,1.5
9769.0,1.43,1.46,1.5
9772.0,1.44,1.46,1.52
9774.0,1.46,1.46,1.55
9776.0,1.44,1.46,1.54
9777.0,1.44,1.46,1.51
9779.0,1.44,1.46,1.52
9781.0,1.44,1.46,1.52
9783.0,1.44,1.46,1.51
9785.0,1.44,1.46,1.52
9787.0,1.44,1.46,1.51
9789.0,1.44,1.46,1.51
9791.0,1.46,1.46,1.5
9793.0,1.46,1.46,1.49
9795.0,1.46,1.46,1.47
9797.0,1.43,1.46,1.45
9799.0,1.42,1.45,1.46
9801.0,1.41,1.46,1.46
9803.0,1.4,1.46,1.44
9805.0,1.41,1.46,1.43
9807.0,1.39,1.46,1.41
9809.0,1.4,1.46,1.41
9811.0,1.42,1.46,1.44
9814.0,1.45,1.45,1.46
9816.0,1.49,1.45,1.46
9818.0,1.42,1.46,1.48
9820.0,1.4,1.46,1.49
9821.0,1.41,1.46,1.48
9823.0,1.43,1.46,1.47
9825.0,1.42,1.46,1.48
9827.0,1.4,1.46,1.47
9829.0,1.41,1.46,1.45
9831.0,1.43,1.46,1.43
9833.0,1.46,1.46,1.44
9835.0,1.47,1.45,1.4
9837.0,1.46,1.45,1.4
9839.0,1.45,1.46,1.41
9841.0,1.45,1.46,1.4
9843.0,1.44,1.46,1.39
9845.0,1.44,1.46,1.36
9847.0,1.42,1.46,1.33
9849.0,1.42,1.46,1.32
9851.0,1.43,1.46,1.33
9853.0,1.44,1.46,1.35
9856.0,1.45,1.45,1.37
9858.0,1.46,1.45,1.37
9860.0,1.45,1.45,1.34
9862.0,1.44,1.46,1.34
9863.0,1.43,1.46,1.35
9865.0,1.42,1.46,1.35
9867.0,1.43,1.46,1.36
9869.0,1.45,1.46,1.39
9871.0,1.46,1.46,1.38
9873.0,1.47,1.46,1.4
9875.0,1.49,1.45,1.4
9877.0,1.48,1.46,1.39
9879.0,1.48,1.46,1.4
9881.0,1.47,1.46,1.42
9883.0,1.45,1.46,1.42
9885.0,1.44,1.46,1.42
9887.0,1.43,1.46,1.4
9889.0,1.44,1.46,1.42
9891.0,1.45,1.46,1.45
9893.0,1.45,1.46,1.49
9895.0,1.44,1.45,1.46
9897.0,1.44,1.45,1.46
9900.0,1.43,1.46,1.46
9902.0,1.43,1.46,1.46
9904.0,1.42,1.46,1.46
9905.0,1.43,1.46,1.47
9907.0,1.42,1.46,1.47
9909.0,1.44,1.46,1.46
9911.0,1.45,1.46,1.46
9913.0,1.46,1.45,1.47
9915.0,1.46,1.45,1.47
9917.0,1.45,1.45,1.44
9919.0,1.43,1.45,1.42
9921.0,1.42,1.45,1.41
9923.0,1.42,1.46,1.4
9925.0,1.42,1.46,1.4
9927.0,1.41,1.46,1.4
9929.0,1.42,1.46,1.42
9931.0,1.44,1.46,1.44
9933.0,1.45,1.45,1.46
9935.0,1.45,1.45,1.47
9937.0,1.44,1.45,1.46
9939.0,1.45,1.45,1.45
9942.0,1.45,1.45,1.45
9944.0,1.44,1.45,1.45
9946.0,1.42,1.46,1.46
9948.0,1.42,1.46,1.46
9949.0,1.43,1.45,1.47
9951.0,1.45,1.46,1.47
9953.0,1.45,1.45,1.48
9955.0,1.45,1.45,1.49
9957.0,1.44,1.45,1.51
9959.0,1.43,1.45,1.51
9961.0,1.44,1.45,1.5
9963.0,1.42,1.45,1.48
9965.0,1.43,1.46,1.45
9967.0,1.43,1.46,1.46
9969.0,1.43,1.46,1.48
9971.0,1.43,1.46,1.51
9973.0,1.45,1.45,1.54
9975.0,1.46,1.45,1.53
9977.0,1.45,1.45,1.53
9979.0,1.44,1.45,1.54
9981.0,1.43,1.45,1.53
9984.0,1.41,1.45,1.52
9986.0,1.4,1.45,1.54
9988.0,1.4,1.46,1.55
9990.0,1.42,1.46,1.58
9991.0,1.42,1.46,1.59
9993.0,1.42,1.45,1.61
9995.0,1.41,1.45,1.61
9997.0,1.4,1.45,1.57
9999.0,1.4,1.45,1.55
10001.0,1.41,1.45,1.54
10003.0,1.4,1.45,1.55
10005.0,1.4,1.46,1.53
10007.0,1.39,1.46,1.52
10009.0,1.41,1.46,1.52
10011.0,1.41,1.45,1.5
10013.0,1.42,1.45,1.49
10015.0,1.42,1.45,1.49
10017.0,1.43,1.45,1.47
10019.0,1.42,1.45,1.44
10021.0,1.42,1.45,1.4
10023.0,1.41,1.45,1.38
10025.0,1.41,1.45,1.36
10028.0,1.4,1.46,1.36
10030.0,1.41,1.46,1.36
10032.0,1.43,1.45,1.38
10034.0,1.45,1.45,1.39
10035.0,1.44,1.45,1.4
10037.0,1.43,1.45,1.38
10039.0,1.43,1.45,1.35
10041.0,1.43,1.45,1.36
10043.0,1.42,1.45,1.34
10045.0,1.41,1.46,1.35
10047.0,1.41,1.46,1.37
10049.0,1.41,1.46,1.4
10051.0,1.42,1.45,1.43
10053.0,1.43,1.45,1.44
10055.0,1.43,1.45,1.44
10057.0,1.42,1.45,1.41
10059.0,1.41,1.45,1.38
10061.0,1.41,1.45,1.36
10063.0,1.41,1.45,1.35
10065.0,1.4,1.45,1.33
10067.0,1.4,1.46,1.34
10070.0,1.41,1.46,1.36
10072.0,1.41,1.45,1.38
10074.0,1.44,1.45,1.39
10076.0,1.45,1.45,1.39
10077.0,1.45,1.45,1.37
10079.0,1.44,1.45,1.34
10081.0,1.44,1.45,1.35
10083.0,1.43,1.45,1.35
10085.0,1.43,1.46,1.35
10087.0,1.41,1.46,1.36
10089.0,1.42,1.46,1.39
10091.0,1.44,1.45,1.4
10093.0,1.47,1.45,1.39
10095.0,1.47,1.45,1.39
10097.0,1.45,1.45,1.4
10099.0,1.44,1.45,1.44
10101.0,1.44,1.45,1.43
10103.0,1.42,1.46,1.43
10105.0,1.41,1.46,1.41
10107.0,1.41,1.46,1.41
10109.0,1.43,1.46,1.43
10112.0,1.46,1.46,1.43
10114.0,1.47,1.45,1.43
10116.0,1.48,1.45,1.43
10118.0,1.46,1.45,1.44
10119.0,1.43,1.45,1.43
10121.0,1.43,1.45,1.42
10123.0,1.43,1.46,1.39
10125.0,1.43,1.46,1.37
10127.0,1.43,1.46,1.36
10129.0,1.44,1.46,1.36
10131.0,1.45,1.45,1.38
10133.0,1.46,1.45,1.4
10135.0,1.47,1.45,1.4
10137.0,1.46,1.45,1.38
10139.0,1.45,1.45,1.37
10141.0,1.45,1.45,1.38
10143.0,1.44,1.45,1.4
10145.0,1.43,1.46,1.4
10147.0,1.42,1.46,1.39
10149.0,1.43,1.45,1.38
10151.0,1.43,1.45,1.39
10153.0,1.45,1.45,1.4
10156.0,1.43,1.45,1.41
10158.0,1.43,1.45,1.41
10160.0,1.43,1.45,1.41
10162.0,1.41,1.45,1.39
10163.0,1.4,1.45,1.4
10165.0,1.38,1.46,1.39
10167.0,1.38,1.46,1.39
10169.0,1.4,1.46,1.39
10171.0,1.42,1.46,1.41
10173.0,1.45,1.45,1.41
10175.0,1.45,1.45,1.4
10177.0,1.45,1.45,1.42
10179.0,1.44,1.45,1.42
10181.0,1.44,1.45,1.41
10183.0,1.43,1.46,1.4
10185.0,1.43,1.46,1.41
10187.0,1.42,1.46,1.41
10189.0,1.44,1.46,1.42
10191.0,1.46,1.46,1.44
10193.0,1.47,1.45,1.45
10195.0,1.47,1.45,1.45
10198.0,1.48,1.45,1.43
10200.0,1.46,1.45,1.4
10202.0,1.44,1.46,1.39
10204.0,1.43,1.46,1.4
10205.0,1.43,1.46,1.41
10207.0,1.43,1.46,1.43
10209.0,1.44,1.46,1.46
10211.0,1.47,1.46,1.47
10213.0,1.48,1.45,1.47
10215.0,1.49,1.45,1.47
10217.0,1.47,1.45,1.48
10219.0,1.46,1.45,1.5
10221.0,1.45,1.46,1.52
10223.0,1.42,1.46,1.53
10225.0,1.42,1.46,1.55
10227.0,1.42,1.46,1.59
10229.0,1.43,1.46,1.62
10231.0,1.45,1.46,1.65
10233.0,1.46,1.46,1.66
10235.0,1.45,1.45,1.66
10237.0,1.45,1.45,1.64
10240.0,1.43,1.45,1.61
10242.0,1.42,1.45,1.38
10244.0,1.4,1.46,1.4
10246.0,1.41,1.46,1.42
10248.0,1.41,1.46,1.43
10249.0,1.41,1.46,1.48
10251.0,1.45,1.46,1.52
10253.0,1.46,1.45,1.56
10255.0,1.46,1.45,1.57
10257.0,1.45,1.45,1.57
10259.0,1.44,1.46,1.56
10261.0,1.42,1.46,1.55
10263.0,1.42,1.46,1.57
10265.0,1.4,1.46,1.55
10267.0,1.4,1.46,1.54
10269.0,1.41,1.46,1.53
10271.0,1.42,1.46,1.55
10273.0,1.45,1.46,1.57
10275.0,1.43,1.45,1.58
10277.0,1.43,1.45,1.59
10279.0,1.42,1.46,1.57
10281.0,1.41,1.46,1.54
10284.0,1.4,1.46,1.54
10286.0,1.4,1.46,1.54
10288.0,1.42,1.46,1.55
10290.0,1.43,1.46,1.56
10292.0,1.44,1.46,1.58
10293.0,1.45,1.45,1.59
10295.0,1.45,1.46,1.58
10297.0,1.44,1.45,1.57
10299.0,1.44,1.45,1.58
10301.0,1.42,1.46,1.59
10303.0,1.41,1.46,1.6
10305.0,1.4,1.46,1.6
10307.0,1.4,1.46,1.6
10309.0,1.41,1.46,1.56
10311.0,1.43,1.46,1.54
10313.0,1.45,1.45,1.54
10315.0,1.45,1.45,1.51
10317.0,1.44,1.46,1.46
10319.0,1.45,1.46,1.45
10321.0,1.44,1.46,1.43
10323.0,1.42,1.46,1.44
10326.0,1.43,1.46,1.43
10328.0,1.44,1.46,1.41
10330.0,1.44,1.46,1.41
10332.0,1.45,1.46,1.42
10334.0,1.45,1.45,1.42
10336.0,1.44,1.45,1.42
10337.0,1.44,1.45,1.42
10339.0,1.43,1.46,1.42
10341.0,1.42,1.46,1.41
10343.0,1.42,1.46,1.41
10345.0,1.41,1.46,1.39
10347.0,1.42,1.46,1.36
10349.0,1.43,1.46,1.36
10351.0,1.45,1.46,1.39
10353.0,1.47,1.45,1.44
10355.0,1.47,1.45,1.45
10357.0,1.45,1.46,1.41
10359.0,1.45,1.46,1.42
10361.0,1.44,1.46,1.38
10363.0,1.44,1.46,1.4
10365.0,1.44,1.46,1.35
10368.0,1.45,1.46,1.39
10370.0,1.46,1.46,1.37
10372.0,1.47,1.46,1.39
10374.0,1.48,1.45,1.37
10376.0,1.48,1.46,1.39
10378.0,1.46,1.46,1.42
10379.0,1.45,1.46,1.46
10381.0,1.45,1.46,1.45
10383.0,1.44,1.46,1.44
10385.0,1.43,1.46,1.44
10387.0,1.43,1.46,1.45
10389.0,1.46,1.46,1.48
10391.0,1.48,1.46,1.48
10393.0,1.48,1.45,1.51
10395.0,1.45,1.46,1.49
10397.0,1.45,1.46,1.46
10399.0,1.45,1.46,1.48
10401.0,1.45,1.46,1.46
10403.0,1.45,1.46,1.45
10405.0,1.43,1.46,1.46
10407.0,1.42,1.46,1.49
10409.0,1.44,1.46,1.52
10412.0,1.46,1.46,1.54
10414.0,1.48,1.46,1.54
10416.0,1.47,1.46,1.49
10418.0,1.44,1.46,1.5
10420.0,1.4,1.46,1.5
10422.0,1.41,1.46,1.5
10423.0,1.43,1.46,1.49
10425.0,1.42,1.46,1.47
10427.0,1.39,1.46,1.45
10429.0,1.41,1.46,1.47
10431.0,1.43,1.46,1.46
10433.0,1.38,1.45,1.45
10435.0,1.33,1.45,1.46
10437.0,1.37,1.46,1.44
10439.0,1.41,1.46,1.41
10441.0,1.35,1.46,1.42
10443.0,1.37,1.46,1.42
10445.0,1.4,1.46,1.38
10447.0,1.36,1.46,1.38
10449.0,1.41,1.46,1.4
10451.0,1.46,1.46,1.41
10454.0,1.41,1.46,1.41
10456.0,1.38,1.45,1.4
10458.0,1.42,1.46,1.35
10460.0,1.51,1.46,1.32
10462.0,1.62,1.46,1.31
10464.0,1.58,1.46,1.34
10465.0,1.14,1.46,1.33
10467.0,0.79,1.46,1.36
10469.0,1.57,1.46,1.37
10471.0,1.83,1.46,1.39
10473.0,1.81,1.45,1.42
10475.0,1.69,1.45,1.44
10477.0,1.45,1.46,1.42
10479.0,1.56,1.46,1.45
10481.0,1.67,1.46,1.41
10483.0,1.65,1.46,1.42
10485.0,1.69,1.46,1.44
10487.0,1.65,1.46,1.41
10489.0,1.34,1.46,1.44
10491.0,1.57,1.46,1.44
10493.0,1.67,1.46,1.49
10496.0,1.79,1.45,1.49
10498.0,1.82,1.45,1.51
10500.0,1.9,1.46,1.49
10502.0,1.81,1.46,1.49
10504.0,1.73,1.46,1.43
10506.0,1.69,1.46,1.41
10508.0,1.65,1.46,1.39
10509.0,1.57,1.46,1.36
10511.0,1.5,1.46,1.39
10513.0,1.4,1.45,1.42
10515.0,1.28,1.45,1.43
10517.0,1.28,1.45,1.44
10519.0,1.33,1.46,1.43
10521.0,1.24,1.46,1.45
10523.0,1.02,1.46,1.46
10525.0,1.24,1.46,1.43
10527.0,1.4,1.46,1.4
10529.0,1.44,1.46,1.39
10531.0,1.44,1.46,1.44
10533.0,1.56,1.46,1.46
10535.0,1.68,1.45,1.44
10537.0,1.73,1.45,1.44
10540.0,1.8,1.46,1.43
10542.0,1.75,1.46,1.35
10544.0,1.73,1.46,1.31
10546.0,1.72,1.46,1.3
10548.0,1.63,1.46,1.29
10550.0,1.47,1.46,1.31
10551.0,1.64,1.45,1.35
10553.0,1.51,1.45,1.34
10555.0,1.63,1.45,1.34
10557.0,1.81,1.45,1.31
10559.0,1.74,1.46,1.3
10561.0,1.65,1.46,1.33
10563.0,1.56,1.46,1.31
10565.0,1.47,1.46,1.32
10567.0,1.38,1.46,1.34
10569.0,1.32,1.46,1.33
10571.0,1.31,1.46,1.33
10573.0,1.24,1.45,1.33
10575.0,1.06,1.45,1.31
10577.0,1.03,1.46,1.27
10579.0,1.29,1.45,1.26
10582.0,1.18,1.46,1.28
10584.0,0.88,1.46,1.26
10586.0,1.0,1.46,1.25
10588.0,1.15,1.46,1.3
10590.0,1.25,1.46,1.28
10592.0,1.09,1.46,1.29
10594.0,1.06,1.45,1.36
10595.0,1.09,1.46,1.37
10597.0,1.06,1.46,1.4
10599.0,1.1,1.46,1.42
10601.0,1.08,1.46,1.43
10603.0,1.01,1.46,1.42
10605.0,0.98,1.46,1.4
10607.0,0.87,1.46,1.41
10609.0,1.19,1.46,1.4
10611.0,1.28,1.46,1.38
10613.0,1.21,1.46,1.39
10615.0,1.18,1.46,1.38
10617.0,1.1,1.46,1.37
10619.0,1.2,1.46,1.4
10621.0,0.98,1.46,1.38
10624.0,1.14,1.46,1.39
10626.0,1.26,1.46,1.39
10628.0,1.18,1.46,1.37
10630.0,1.34,1.46,1.41
10632.0,1.36,1.46,1.4
10634.0,1.1,1.46,1.44
10636.0,1.11,1.46,1.42
10637.0,1.32,1.46,1.43
10639.0,1.44,1.46,1.25
10641.0,1.42,1.46,1.03
10643.0,1.45,1.46,0.94
10645.0,1.5,1.46,0.91
10647.0,1.51,1.46,0.9
10649.0,1.56,1.46,0.9
10651.0,1.73,1.46,0.93
10653.0,1.72,1.46,0.93
10655.0,1.75,1.46,0.97
10657.0,1.84,1.46,0.99
10659.0,1.7,1.46,0.99
10661.0,1.76,1.46,1.0
10663.0,1.88,1.46,1.02
10665.0,1.82,1.46,1.05
10668.0,1.52,1.46,1.09
10670.0,1.46,1.46,1.12
10672.0,1.81,1.46,1.17
10674.0,1.71,1.46,1.15
10676.0,1.87,1.46,1.15
10678.0,1.77,1.46,1.16
10680.0,1.9,1.46,1.16
10681.0,1.75,1.46,1.18
10683.0,1.88,1.46,1.23
10685.0,1.58,1.46,1.25
10687.0,1.79,1.46,1.29
10689.0,1.7,1.46,1.32
10691.0,2.07,1.46,1.34
10693.0,2.29,1.46,1.36
10695.0,2.24,1.46,1.36
10697.0,2.62,1.46,1.39
10699.0,2.59,1.46,1.44
10701.0,2.57,1.46,1.53
10703.0,2.7,1.46,1.6
10705.0,2.75,1.46,1.61
10707.0,2.89,1.46,1.61
10710.0,2.9,1.46,1.67
10712.0,3.3,1.46,1.75
10714.0,3.26,1.46,1.77
10716.0,3.3,1.46,1.74
10718.0,3.3,1.46,1.71
10720.0,3.3,1.46,1.7
10722.0,3.3,1.46,1.69
10723.0,3.3,1.46,1.73
10725.0,3.3,1.46,1.73
10727.0,3.3,1.46,1.72
10729.0,3.3,1.46,1.81
10731.0,3.3,1.46,1.86
10733.0,3.3,1.45,1.8
10735.0,3.3,1.45,1.7
10737.0,3.3,1.45,1.61
10739.0,3.3,1.45,1.54
10741.0,3.3,1.46,1.5
10743.0,3.3,1.45,1.55
10745.0,3.3,1.45,1.58
10747.0,3.3,1.45,1.59
10749.0,3.3,1.45,1.59
10752.0,3.3,1.45,1.59
10754.0,3.3,1.45,1.55
10756.0,3.3,1.45,1.54
10758.0,3.3,1.45,1.56
10760.0,3.3,1.45,1.5
10762.0,3.3,1.45,1.53
10764.0,3.3,1.45,1.55
10766.0,3.12,1.45,1.57
10767.0,2.93,1.45,1.6
10769.0,1.98,1.45,1.64
10771.0,1.39,1.45,1.63
10773.0,1.06,1.45,1.6
10775.0,1.11,1.45,1.56
10777.0,1.25,1.45,1.54
10779.0,0.8,1.45,1.49
10781.0,0.38,1.45,1.46
10783.0,0.0,1.45,1.46
10785.0,0.04,1.45,1.5
10787.0,0.0,1.45,1.52
10789.0,0.0,1.45,1.54
10791.0,0.0,1.45,1.53
10793.0,0.0,1.45,1.53
10796.0,0.0,1.45,1.52
10798.0,0.0,1.45,1.49
10800.0,0.0,1.45,1.45
10802.0,0.0,1.45,1.45
10804.0,0.0,1.45,1.45
10806.0,0.0,1.45,1.47
10808.0,0.0,1.45,1.46
10809.0,0.0,1.45,1.47
10811.0,0.0,1.45,1.46
10813.0,0.0,1.45,1.46
10815.0,0.0,1.45,1.46
10817.0,0.0,1.45,1.44
10819.0,0.0,1.45,1.44
10821.0,0.0,1.45,1.43
10823.0,0.0,1.45,1.4
10825.0,0.0,1.45,1.41
10827.0,0.0,1.45,1.42
10829.0,0.0,1.45,1.42
10831.0,0.0,1.45,1.47
10833.0,0.0,1.45,1.51
10835.0,0.0,1.45,1.54
10838.0,0.0,1.45,1.5
10840.0,0.0,1.45,1.54
10842.0,0.0,1.45,1.55
10844.0,0.0,1.45,1.57
10846.0,0.0,1.45,1.54
10848.0,0.0,1.45,1.55
10850.0,0.0,1.45,1.59
10852.0,0.0,1.45,1.67
10853.0,0.0,1.45,1.67
10855.0,0.0,1.45,1.65
10857.0,0.0,1.45,1.65
10859.0,0.0,1.46,1.68
10861.0,0.0,1.46,1.72
10863.0,0.0,1.46,1.74
10865.0,0.0,1.46,1.79
10867.0,0.0,1.46,1.86
10869.0,0.0,1.46,1.9
10871.0,0.0,1.45,1.95
10873.0,0.0,1.45,1.94
10875.0,0.0,1.45,1.92
10877.0,0.0,1.46,1.92
10880.0,0.0,1.45,1.92
10882.0,0.0,1.46,1.92
10884.0,0.0,1.46,1.9
10886.0,0.0,1.46,1.89
10888.0,0.0,1.46,1.87
10890.0,0.0,1.46,1.85
10892.0,0.0,1.45,1.87
10894.0,0.0,1.45,1.88
10896.0,0.0,1.45,1.89
10897.0,0.0,1.46,1.89
10899.0,0.0,1.45,1.9
10901.0,0.08,1.45,1.9
10903.0,0.2,1.46,1.86
10905.0,0.42,1.46,1.83
10907.0,0.59,1.46,1.81
10909.0,0.74,1.46,1.76
10911.0,0.95,1.45,1.76
10913.0,1.11,1.45,1.74
10915.0,0.87,1.45,1.7
10917.0,1.2,1.45,1.69
10919.0,1.61,1.45,1.71
10921.0,1.47,1.45,1.72
10924.0,1.41,1.46,1.73
10926.0,1.54,1.46,1.74
10928.0,1.41,1.46,1.74
10930.0,1.45,1.46,1.72
10932.0,1.31,1.46,1.73
10934.0,1.68,1.45,1.73
10936.0,2.01,1.45,1.73
10938.0,1.88,1.45,1.72
10939.0,1.65,1.46,1.69
10941.0,1.62,1.46,1.67
10943.0,1.73,1.46,1.65
10945.0,1.69,1.46,1.62
10947.0,1.78,1.46,1.58
10949.0,1.84,1.46,1.55
10951.0,1.85,1.45,1.55
10953.0,1.28,1.45,1.53
10955.0,0.13,1.45,1.48
10957.0,0.0,1.45,1.46
10959.0,0.0,1.45,1.45
10961.0,0.0,1.45,1.42
10963.0,0.0,1.46,1.37
10966.0,0.0,1.46,1.37
10968.0,0.0,1.46,1.36
10970.0,0.0,1.46,1.35
10972.0,0.0,1.45,1.34
10974.0,0.0,1.45,1.28
10976.0,0.0,1.46,1.26
10978.0,0.0,1.46,1.25
10980.0,0.0,1.46,1.25
10981.0,0.0,1.46,1.23
10983.0,0.0,1.46,1.22
10985.0,0.0,1.46,1.23
10987.0,0.0,1.46,1.26
10989.0,0.0,1.46,1.29
10991.0,0.0,1.46,1.29
10993.0,0.0,1.46,1.29
10995.0,0.0,1.46,1.27
10997.0,0.0,1.46,1.27
10999.0,0.0,1.46,1.26
11001.0,0.0,1.46,1.26
11003.0,0.04,1.46,1.25
11005.0,0.16,1.46,1.26
11008.0,0.35,1.46,1.28
11010.0,0.45,1.46,1.3
11012.0,0.62,1.46,1.3
11014.0,0.7,1.46,1.26
11016.0,0.78,1.46,1.24
11018.0,0.79,1.46,1.23
11020.0,0.89,1.46,1.21
11022.0,0.89,1.46,1.22
11024.0,0.93,1.46,1.23
11025.0,1.09,1.46,1.24
11027.0,1.23,1.46,1.22
11029.0,1.24,1.46,1.21
11031.0,1.44,1.45,1.25
11033.0,1.58,1.45,1.24
11035.0,1.64,1.45,1.25
11037.0,1.63,1.45,1.25
11039.0,1.64,1.45,1.25
11041.0,1.58,1.46,1.23
11043.0,1.61,1.46,1.22
11045.0,1.73,1.46,1.21
11047.0,1.66,1.45,1.21
11049.0,1.58,1.45,1.22
11052.0,1.85,1.45,1.25
11054.0,1.77,1.45,1.27
11056.0,1.82,1.45,1.25
11058.0,1.96,1.45,1.18
11060.0,2.11,1.46,1.15
11062.0,2.05,1.46,1.14
11064.0,2.07,1.46,1.14
11066.0,2.05,1.46,1.15
11068.0,2.06,1.46,1.18
11069.0,2.13,1.46,1.24
11071.0,2.16,1.45,1.25
11073.0,2.14,1.45,1.23
11075.0,2.25,1.45,1.22
11077.0,2.37,1.46,1.24
11079.0,2.25,1.46,1.24
11081.0,2.26,1.46,1.27
11083.0,2.2,1.46,1.28
11085.0,2.29,1.46,1.26
11087.0,2.25,1.46,1.27
11089.0,2.3,1.46,1.27
11091.0,2.29,1.45,1.27
11094.0,2.19,1.45,1.27
11096.0,2.21,1.45,1.29
11098.0,2.42,1.46,1.31
