time,ch1,ch2,ch3
1.0,1.43,1.54,1.44
3.0,1.43,1.52,1.45
5.0,1.42,1.5,1.45
7.0,1.4,1.47,1.45
9.0,1.42,1.48,1.46
11.0,1.41,1.46,1.46
13.0,1.4,1.46,1.47
15.0,1.43,1.48,1.47
17.0,1.43,1.5,1.46
19.0,1.44,1.5,1.45
21.0,1.44,1.48,1.44
23.0,1.45,1.45,1.44
25.0,1.44,1.44,1.44
27.0,1.43,1.43,1.46
29.0,1.44,1.45,1.5
31.0,1.43,1.44,1.49
33.0,1.45,1.46,1.48
35.0,1.46,1.48,1.47
37.0,1.47,1.46,1.45
39.0,1.44,1.5,1.42
41.0,1.42,1.49,1.41
43.0,1.43,1.51,1.4
45.0,1.45,1.52,1.39
47.0,1.44,1.52,1.4
49.0,1.43,1.54,1.41
51.0,1.43,1.54,1.41
53.0,1.43,1.54,1.39
55.0,1.43,1.52,1.38
57.0,1.43,1.5,1.38
59.0,1.45,1.53,1.41
61.0,1.46,1.55,1.43
63.0,1.45,1.49,1.45
65.0,1.46,1.45,1.43
67.0,1.47,1.52,1.43
69.0,1.47,1.53,1.43
71.0,1.47,1.55,1.4
73.0,1.45,1.54,1.39
75.0,1.44,1.52,1.36
77.0,1.43,1.49,1.34
79.0,1.42,1.5,1.32
81.0,1.44,1.5,1.32
83.0,1.45,1.49,1.37
86.0,1.44,1.5,1.35
87.0,1.45,1.49,1.33
89.0,1.45,1.51,1.32
91.0,1.44,1.52,1.32
93.0,1.44,1.54,1.32
95.0,1.43,1.55,1.33
97.0,1.42,1.51,1.32
99.0,1.41,1.5,1.33
101.0,1.38,1.51,1.37
103.0,1.4,1.51,1.41
105.0,1.43,1.5,1.42
107.0,1.43,1.49,1.41
109.0,1.41,1.44,1.44
111.0,1.4,1.35,1.44
113.0,1.4,1.33,1.44
115.0,1.4,1.35,1.45
117.0,1.4,1.34,1.46
119.0,1.4,1.39,1.47
121.0,1.41,1.4,1.49
123.0,1.41,1.44,1.5
125.0,1.43,1.48,1.49
128.0,1.44,1.51,1.5
129.0,1.44,1.47,1.49
131.0,1.43,1.47,1.5
133.0,1.42,1.46,1.52
135.0,1.42,1.5,1.5
137.0,1.43,1.51,1.48
139.0,1.43,1.51,1.52
141.0,1.46,1.5,1.53
143.0,1.46,1.56,1.53
145.0,1.45,1.55,1.54
147.0,1.45,1.49,1.54
149.0,1.45,1.5,1.53
151.0,1.43,1.51,1.51
153.0,1.44,1.59,1.52
155.0,1.49,1.62,1.55
157.0,1.5,1.67,1.57
159.0,1.48,1.62,1.55
161.0,1.46,1.61,1.55
163.0,1.45,1.62,1.56
165.0,1.45,1.64,1.55
167.0,1.44,1.65,1.53
169.0,1.43,1.7,1.5
171.0,1.41,1.68,1.45
173.0,1.37,1.64,1.41
175.0,1.36,1.54,1.39
177.0,1.37,1.51,1.36
179.0,1.34,1.49,1.38
181.0,1.31,1.5,1.4
183.0,1.36,1.52,1.41
185.0,1.39,1.53,1.42
187.0,1.38,1.56,1.42
189.0,1.38,1.53,1.4
191.0,1.38,1.49,1.39
193.0,1.39,1.5,1.39
195.0,1.39,1.49,1.4
197.0,1.4,1.47,1.43
199.0,1.42,1.47,1.43
201.0,1.45,1.51,1.45
203.0,1.45,1.53,1.48
205.0,1.46,1.54,1.48
207.0,1.46,1.53,1.49
209.0,1.44,1.55,1.55
211.0,1.45,1.61,3.3
214.0,1.46,1.6,3.3
215.0,1.45,1.57,3.3
217.0,1.46,1.55,0.0
219.0,1.45,1.56,2.34
221.0,1.46,1.54,3.3
223.0,1.47,1.54,3.3
225.0,1.47,1.5,3.3
227.0,1.45,1.47,3.3
229.0,1.44,1.44,3.3
231.0,1.44,1.43,3.3
233.0,1.43,1.4,0.0
235.0,1.41,1.39,0.0
237.0,1.41,1.37,0.0
239.0,1.41,1.39,0.0
241.0,1.4,1.39,0.0
243.0,1.44,1.38,0.0
245.0,1.45,1.36,0.0
247.0,1.44,1.36,0.0
249.0,1.44,1.33,0.0
251.0,1.45,1.36,0.0
253.0,1.45,1.38,0.0
256.0,1.44,1.37,0.0
257.0,1.44,1.39,0.0
259.0,1.44,1.36,0.0
261.0,1.45,1.38,0.0
263.0,1.45,1.4,0.0
265.0,1.45,1.41,0.0
267.0,1.44,1.43,0.0
269.0,1.43,1.44,0.0
271.0,1.45,1.45,0.0
273.0,1.44,1.43,0.0
275.0,1.44,1.43,0.0
277.0,1.43,1.41,0.0
279.0,1.42,1.43,0.0
281.0,1.42,1.44,0.12
283.0,1.46,1.48,0.27
285.0,1.47,1.51,0.42
287.0,1.46,1.52,0.56
289.0,1.45,1.47,0.66
291.0,1.45,1.48,0.79
293.0,1.45,1.48,0.86
295.0,1.44,1.44,0.92
297.0,1.44,1.42,0.99
299.0,1.44,1.41,1.09
301.0,1.45,1.45,1.16
303.0,1.44,1.52,1.24
305.0,1.43,1.51,1.28
307.0,1.43,1.48,1.3
309.0,1.43,1.48,1.3
311.0,1.42,1.44,1.31
313.0,1.41,1.43,1.38
315.0,1.41,1.42,1.41
317.0,1.43,1.4,1.45
319.0,1.46,1.35,1.49
321.0,1.48,1.26,1.53
323.0,1.49,1.19,1.54
325.0,1.49,1.21,1.56
327.0,1.47,1.27,1.58
329.0,1.47,1.28,1.57
331.0,1.47,1.31,1.58
333.0,1.47,1.3,1.58
335.0,1.48,1.32,1.59
337.0,1.48,1.35,1.61
339.0,1.47,1.39,1.65
342.0,1.47,1.39,1.67
343.0,1.48,1.4,1.69
345.0,1.47,1.41,1.71
347.0,1.46,1.44,1.73
349.0,1.45,1.41,1.72
351.0,1.45,1.39,1.69
353.0,1.44,1.35,1.73
355.0,1.43,1.38,1.75
357.0,1.44,1.39,1.73
359.0,1.43,1.43,1.71
361.0,1.4,1.43,1.68
363.0,1.44,1.44,1.65
365.0,1.46,1.46,1.65
367.0,1.47,1.47,1.68
369.0,1.47,1.49,1.67
371.0,1.46,1.46,1.62
373.0,1.45,1.48,1.61
375.0,1.45,1.49,1.63
377.0,1.43,1.49,1.65
379.0,1.43,1.49,1.67
381.0,1.44,1.5,1.66
384.0,1.48,1.51,1.66
385.0,1.5,1.51,1.61
387.0,1.51,1.51,1.57
389.0,1.5,1.51,1.58
391.0,1.45,1.53,1.61
393.0,1.46,1.52,1.63
395.0,1.46,1.53,1.63
397.0,1.45,1.51,1.62
399.0,1.45,1.49,1.64
401.0,1.46,1.52,1.65
403.0,1.45,1.52,1.69
405.0,1.47,1.52,1.73
407.0,1.51,1.53,1.69
409.0,1.52,1.5,1.66
411.0,1.51,1.51,1.69
413.0,1.48,1.49,1.71
415.0,1.45,1.48,1.69
417.0,1.44,1.47,1.67
419.0,1.44,1.49,1.65
421.0,1.45,1.53,1.65
423.0,1.47,1.59,1.67
425.0,1.47,1.59,1.63
427.0,1.45,1.6,1.62
429.0,1.42,1.58,1.64
431.0,1.44,1.56,1.64
433.0,1.45,1.55,1.6
435.0,1.45,1.49,1.59
437.0,1.45,1.52,1.59
439.0,1.45,1.52,1.6
441.0,1.46,1.51,1.62
443.0,1.47,1.5,1.62
445.0,1.45,1.53,1.6
447.0,1.46,1.52,1.58
449.0,1.39,1.54,1.58
451.0,1.3,1.49,1.56
453.0,1.25,1.49,1.53
455.0,1.23,1.47,1.54
457.0,1.26,1.47,1.53
459.0,1.34,1.46,1.55
461.0,1.39,1.44,1.58
463.0,1.42,1.47,1.61
465.0,1.44,1.48,1.63
467.0,1.44,1.47,1.62
470.0,1.46,1.49,1.59
471.0,1.45,1.53,1.56
473.0,1.45,1.56,1.55
475.0,1.45,1.56,1.55
477.0,1.43,1.55,1.55
479.0,1.45,1.56,1.57
481.0,1.47,1.54,1.61
483.0,1.45,1.55,1.63
485.0,1.43,1.53,1.64
487.0,1.45,1.51,1.63
489.0,1.5,1.49,1.63
491.0,1.52,1.46,1.62
493.0,1.52,1.45,1.58
495.0,1.54,1.48,1.55
497.0,1.56,1.48,1.54
499.0,1.58,1.5,1.54
501.0,1.57,1.49,1.55
503.0,1.56,1.49,1.56
505.0,1.55,1.49,1.59
507.0,1.54,1.51,1.56
509.0,1.51,1.55,1.5
512.0,1.49,1.55,1.47
513.0,1.5,1.53,1.45
515.0,1.53,1.51,1.45
517.0,1.54,1.49,1.43
519.0,1.56,1.46,1.46
521.0,1.57,1.44,1.55
523.0,1.56,1.45,1.6
525.0,1.55,1.45,1.58
527.0,1.53,1.49,1.59
529.0,1.52,1.52,1.55
531.0,1.5,1.52,1.5
533.0,1.49,1.49,1.48
535.0,1.47,1.47,1.51
537.0,1.46,1.51,1.54
539.0,1.44,1.53,1.57
541.0,1.48,1.49,1.57
543.0,1.52,1.54,1.57
545.0,1.5,1.56,1.55
547.0,1.49,1.52,1.55
549.0,1.46,1.49,1.55
551.0,1.45,1.5,1.52
553.0,1.45,1.51,1.52
556.0,1.45,1.5,1.5
557.0,1.45,1.48,1.49
559.0,1.44,1.5,1.52
561.0,1.43,1.53,1.62
563.0,1.41,1.52,1.62
565.0,1.4,1.51,1.59
567.0,1.41,1.5,1.57
569.0,1.4,1.49,1.58
571.0,1.39,1.51,1.59
573.0,1.39,1.49,1.55
575.0,1.38,1.46,1.5
577.0,1.36,1.45,1.5
579.0,1.37,1.45,1.53
581.0,1.37,1.52,1.53
583.0,1.36,1.56,1.55
585.0,1.35,1.54,1.54
587.0,1.35,1.51,1.51
589.0,1.36,1.53,1.49
591.0,1.36,1.56,1.47
593.0,1.35,1.54,1.44
595.0,1.32,1.53,1.42
598.0,1.3,1.51,1.39
599.0,1.34,1.52,1.4
601.0,1.35,1.53,1.42
603.0,1.34,1.52,1.44
605.0,1.33,1.54,1.42
607.0,1.33,1.55,1.42
609.0,1.31,1.55,1.42
611.0,1.31,1.53,1.42
613.0,1.32,1.47,1.4
615.0,1.31,1.46,1.41
617.0,1.31,1.51,1.42
619.0,1.32,1.54,1.42
621.0,1.33,1.52,1.43
623.0,1.31,1.53,1.43
625.0,1.33,1.53,1.41
627.0,1.35,1.59,1.42
629.0,1.38,1.61,1.4
631.0,1.38,1.6,1.37
633.0,1.38,1.57,1.34
635.0,1.38,1.6,1.38
637.0,1.38,1.59,1.4
640.0,1.37,1.57,1.42
641.0,1.38,1.55,1.45
643.0,1.37,1.57,1.5
645.0,1.39,1.55,1.52
647.0,1.4,1.56,1.5
649.0,1.42,1.53,1.49
651.0,1.45,1.54,1.49
653.0,1.46,1.48,1.47
655.0,1.46,1.44,1.45
657.0,1.46,1.44,1.44
659.0,1.48,1.42,1.46
661.0,1.5,1.46,1.48
663.0,1.5,1.48,1.49
665.0,1.48,1.47,1.47
667.0,1.43,1.46,1.46
669.0,1.45,1.46,1.47
671.0,1.42,1.45,1.46
673.0,1.43,1.4,1.46
675.0,1.43,1.38,1.45
677.0,1.43,1.36,1.44
679.0,1.46,1.37,1.45
681.0,1.48,1.4,1.44
684.0,1.5,1.43,1.45
685.0,1.5,1.4,1.44
687.0,1.5,1.4,1.41
689.0,1.49,1.41,1.4
691.0,1.47,1.38,1.39
693.0,1.46,1.43,1.35
695.0,1.49,1.42,1.33
697.0,1.5,1.44,1.34
699.0,1.51,1.45,1.35
701.0,1.5,1.5,1.36
703.0,1.51,1.56,1.37
705.0,1.54,1.64,1.36
707.0,1.53,1.68,1.36
709.0,1.51,1.71,1.36
711.0,1.5,1.7,1.39
713.0,1.46,1.66,1.41
715.0,1.42,1.63,1.4
717.0,1.49,1.63,1.42
719.0,1.5,1.6,1.44
721.0,1.5,1.59,1.45
723.0,1.5,1.6,1.46
726.0,1.5,1.59,1.45
727.0,1.49,1.55,1.43
729.0,1.45,1.51,1.44
731.0,1.43,1.49,1.45
733.0,1.42,1.47,1.45
735.0,1.42,1.43,1.45
737.0,1.43,1.46,1.47
739.0,1.44,1.5,1.47
741.0,1.45,1.51,1.48
743.0,1.47,1.52,1.51
745.0,1.46,1.51,1.48
747.0,1.41,1.47,1.46
749.0,1.38,1.47,1.45
751.0,1.4,1.44,1.45
753.0,1.43,1.46,1.43
755.0,1.42,1.4,1.45
757.0,1.43,1.36,1.48
759.0,1.42,1.36,1.45
761.0,1.43,1.38,1.45
763.0,1.44,1.4,1.45
765.0,1.41,1.4,1.41
768.0,1.39,1.45,1.38
769.0,1.43,1.4,1.36
771.0,1.45,1.39,1.35
773.0,1.38,1.39,1.36
775.0,1.39,1.36,1.38
777.0,1.4,1.39,1.39
779.0,1.44,1.39,1.44
781.0,1.45,1.42,1.44
783.0,1.48,1.4,1.44
785.0,1.48,1.38,1.44
787.0,1.47,1.37,1.45
789.0,1.45,1.35,1.45
791.0,1.43,1.33,1.47
793.0,1.44,1.33,1.47
795.0,1.43,1.37,1.47
797.0,1.42,1.39,1.47
799.0,1.41,1.4,1.46
801.0,1.42,1.42,1.48
803.0,1.43,1.44,1.5
805.0,1.44,1.45,1.46
807.0,1.44,1.39,1.44
809.0,1.42,1.38,1.45
812.0,1.41,1.37,1.46
813.0,1.42,1.37,1.45
815.0,1.43,1.39,1.43
817.0,1.43,1.35,1.45
819.0,1.43,1.32,1.47
821.0,1.43,1.3,1.47
823.0,1.43,1.32,1.45
825.0,1.45,1.32,1.45
827.0,1.47,1.34,1.44
829.0,1.47,1.29,1.43
831.0,1.49,1.24,1.41
833.0,1.47,1.22,1.41
835.0,1.48,1.19,1.42
837.0,1.5,1.22,1.43
839.0,1.45,1.24,1.44
841.0,1.43,1.22,1.46
843.0,1.45,1.23,1.51
845.0,1.44,1.27,1.52
847.0,1.37,1.25,1.53
849.0,1.39,1.25,1.55
851.0,1.37,1.28,1.56
854.0,1.37,1.31,1.55
855.0,1.36,1.35,1.55
857.0,1.37,1.37,1.56
859.0,1.37,1.36,1.58
861.0,1.35,1.35,1.59
863.0,1.35,1.35,1.57
865.0,1.4,1.35,1.58
867.0,1.39,1.34,1.58
869.0,1.41,1.35,1.59
871.0,1.4,1.38,1.56
873.0,1.4,1.4,1.53
875.0,1.38,1.41,1.49
877.0,1.37,1.44,1.49
879.0,1.38,1.44,1.46
881.0,1.4,1.46,1.48
883.0,1.39,1.52,1.52
885.0,1.38,1.5,1.51
887.0,1.37,1.47,1.53
889.0,1.35,1.44,1.53
891.0,1.37,1.43,1.51
893.0,1.4,1.44,1.48
896.0,1.41,1.42,1.48
897.0,1.43,1.4,1.5
899.0,1.42,1.41,1.48
901.0,1.42,1.42,1.47
903.0,1.4,1.41,1.46
905.0,1.41,1.4,1.43
907.0,1.42,1.38,1.42
909.0,1.44,1.4,1.43
911.0,1.44,1.41,1.4
913.0,1.45,1.39,1.38
915.0,1.47,1.4,1.37
917.0,1.47,1.46,1.37
919.0,1.48,1.47,1.37
921.0,1.5,1.5,1.37
923.0,1.49,1.5,1.4
925.0,1.48,1.52,1.4
927.0,1.47,1.51,1.4
929.0,1.45,1.5,1.37
931.0,1.46,1.5,1.37
933.0,1.45,1.47,1.38
935.0,1.45,1.44,1.35
937.0,1.42,1.4,1.36
940.0,1.41,1.37,1.35
941.0,1.41,1.42,1.36
943.0,1.38,1.43,1.35
945.0,1.34,1.43,1.38
947.0,1.3,1.45,1.4
949.0,1.31,1.45,1.4
951.0,1.31,1.5,1.4
953.0,1.33,1.48,1.41
955.0,1.35,1.45,1.41
957.0,1.36,1.48,1.43
959.0,1.38,1.52,1.45
961.0,1.39,1.58,1.46
963.0,1.39,1.6,1.46
965.0,1.38,1.56,1.45
967.0,1.43,1.5,1.45
969.0,1.44,1.44,1.42
971.0,1.43,1.44,1.42
973.0,1.41,1.43,1.41
975.0,1.42,1.46,1.41
977.0,1.43,1.38,1.43
979.0,1.44,1.4,1.45
982.0,1.41,1.44,1.47
983.0,1.41,1.47,1.48
985.0,1.45,1.51,1.48
987.0,1.45,1.54,1.51
989.0,1.45,1.56,1.48
991.0,1.47,1.54,1.45
993.0,1.47,1.55,1.43
995.0,1.46,1.52,1.4
997.0,1.46,1.52,1.38
999.0,1.47,1.52,1.39
1001.0,1.45,1.53,1.41
1003.0,1.43,1.5,1.42
1005.0,1.43,1.52,1.44
1007.0,1.44,1.48,1.45
1009.0,1.43,1.44,1.45
1011.0,1.45,1.45,1.45
1013.0,1.47,1.48,1.41
1015.0,1.46,1.31,1.34
1017.0,1.45,1.19,1.3
1019.0,1.44,1.17,1.31
1021.0,1.45,1.2,1.36
1024.0,1.46,1.24,1.37
1025.0,1.45,1.32,1.38
1027.0,1.42,1.36,1.38
1029.0,1.42,1.44,1.39
1031.0,1.43,1.49,1.38
1033.0,1.45,1.56,1.4
1035.0,1.44,1.56,1.4
1037.0,1.45,1.59,1.39
1039.0,1.46,1.58,1.41
1041.0,1.48,1.56,1.4
1043.0,1.52,1.55,1.39
1045.0,1.55,1.51,1.38
1047.0,1.54,1.45,1.39
1049.0,1.52,1.42,1.39
1051.0,1.5,1.41,1.39
1053.0,1.46,1.43,1.41
1055.0,1.42,1.48,1.42
1057.0,1.48,1.5,1.43
1059.0,1.49,1.49,1.42
1061.0,1.49,1.51,1.45
1063.0,1.5,1.5,1.44
1065.0,1.5,1.52,1.43
1068.0,1.5,1.51,1.44
1069.0,1.51,1.53,1.43
1071.0,1.51,1.5,1.43
1073.0,1.49,1.52,1.41
1075.0,1.48,1.51,1.42
1077.0,1.49,1.52,1.45
1079.0,1.51,1.51,1.46
1081.0,1.55,1.5,1.46
1083.0,1.58,1.53,1.47
1085.0,1.56,1.49,1.48
1087.0,1.55,1.51,1.5
1089.0,1.53,1.54,1.48
1091.0,1.49,1.62,1.47
1093.0,1.52,1.64,1.48
1095.0,1.48,1.65,1.5
1097.0,1.45,1.64,1.5
1099.0,1.45,1.66,1.46
1101.0,1.48,1.71,1.47
1103.0,1.49,1.72,1.46
1105.0,1.46,1.7,1.44
1107.0,1.45,1.67,1.42
1110.0,1.45,1.66,1.42
1111.0,1.44,1.65,1.46
1113.0,1.43,1.64,1.47
1115.0,1.41,1.6,1.45
1117.0,1.41,1.59,1.45
1119.0,1.46,1.56,1.46
1121.0,1.51,1.6,1.48
1123.0,1.48,1.6,1.47
1125.0,1.47,1.6,1.47
1127.0,1.46,1.6,1.49
1129.0,1.47,1.59,1.47
1131.0,1.47,1.58,1.45
1133.0,1.47,1.58,1.45
1135.0,1.49,1.57,1.44
1137.0,1.47,1.52,1.46
1139.0,1.46,1.56,1.45
1141.0,1.44,1.56,1.47
1143.0,1.41,1.49,1.48
1145.0,1.4,1.5,1.48
1147.0,1.41,1.49,1.5
1149.0,1.39,1.5,1.49
1152.0,1.37,1.52,1.48
1153.0,1.38,1.51,1.5
1155.0,1.38,1.45,1.51
1157.0,1.4,1.45,1.52
1159.0,1.38,1.45,1.54
1161.0,1.4,1.41,1.53
1163.0,1.43,1.41,1.51
1165.0,1.43,1.44,1.48
1167.0,1.44,1.42,1.46
1169.0,1.43,1.42,1.45
1171.0,1.43,1.43,1.43
1173.0,1.43,1.44,1.44
1175.0,1.42,1.45,1.44
1177.0,1.42,1.45,1.45
1179.0,1.43,1.46,1.47
1181.0,1.45,1.46,1.47
1183.0,1.46,1.48,1.45
1185.0,1.45,1.51,1.42
1187.0,1.44,1.51,1.4
1189.0,1.44,1.5,1.41
1191.0,1.45,1.46,1.41
1193.0,1.45,1.3,1.4
1196.0,1.46,1.35,1.39
1197.0,1.48,1.4,1.38
1199.0,1.48,1.43,1.41
1201.0,1.47,1.45,1.42
1203.0,1.46,1.48,1.41
1205.0,1.43,1.47,1.4
1207.0,1.44,1.45,1.39
1209.0,1.43,1.45,1.38
1211.0,1.44,1.43,1.37
1213.0,1.43,1.41,1.37
1215.0,1.41,1.42,1.39
1217.0,1.4,1.42,1.41
1219.0,1.43,1.38,1.42
1221.0,1.43,1.43,1.44
1223.0,1.42,1.45,1.43
1225.0,1.39,1.44,1.45
1227.0,1.37,1.24,1.48
1229.0,1.38,0.98,1.47
1231.0,1.37,0.86,1.45
1233.0,1.38,0.84,1.45
1235.0,1.39,0.86,1.45
1238.0,1.37,0.96,1.46
1239.0,1.37,1.04,1.49
1241.0,1.39,1.11,1.52
1243.0,1.39,1.18,1.49
1245.0,1.4,1.26,1.5
1247.0,1.4,1.28,1.49
1249.0,1.38,1.33,1.48
1251.0,1.38,1.37,1.49
1253.0,1.43,1.42,1.48
1255.0,1.44,1.47,1.47
1257.0,1.44,1.51,1.48
1259.0,1.47,1.56,1.49
1261.0,1.5,1.63,1.52
1263.0,1.49,1.65,1.49
1265.0,1.49,1.65,1.47
1267.0,1.55,1.63,1.46
1269.0,1.58,1.63,1.43
1271.0,1.58,1.6,1.39
1273.0,1.56,1.61,1.38
1275.0,1.56,1.59,1.39
1277.0,1.5,1.59,1.44
1280.0,1.45,1.6,1.43
1281.0,1.43,1.61,1.43
1283.0,1.42,1.61,1.42
1285.0,1.42,1.64,1.41
1287.0,1.41,1.65,1.4
1289.0,1.42,1.63,1.41
1291.0,1.41,1.62,1.43
1293.0,1.42,1.59,1.44
1295.0,1.43,1.58,1.42
1297.0,1.43,1.58,1.44
1299.0,1.42,1.56,1.44
1301.0,1.43,1.58,1.46
1303.0,1.43,1.55,1.45
1305.0,1.4,1.57,1.44
1307.0,1.41,1.55,1.42
1309.0,1.44,1.56,1.42
1311.0,1.45,1.58,1.44
1313.0,1.46,1.56,1.44
1315.0,1.45,1.54,1.48
1317.0,1.45,1.56,1.51
1319.0,1.46,1.54,1.52
1321.0,1.44,1.53,1.54
1324.0,1.41,1.56,1.54
1325.0,1.43,1.53,1.53
1327.0,1.45,1.54,1.51
1329.0,1.44,1.57,1.49
1331.0,1.42,1.57,1.47
1333.0,1.37,1.58,1.46
1335.0,1.34,1.55,1.45
1337.0,1.35,1.55,1.46
1339.0,1.39,1.54,1.45
1341.0,1.4,1.56,1.45
1343.0,1.39,1.57,1.46
1345.0,1.41,1.57,1.43
1347.0,1.4,1.53,1.41
1349.0,1.41,1.47,1.42
1351.0,1.42,1.45,1.41
1353.0,1.49,1.44,1.41
1355.0,1.54,1.44,1.4
1357.0,1.56,1.47,1.39
1359.0,1.63,1.44,1.4
1361.0,1.67,1.43,1.4
1363.0,1.64,1.39,1.4
1366.0,1.54,1.38,1.42
1367.0,1.46,1.37,1.42
1369.0,1.43,1.35,1.43
1371.0,1.37,1.35,1.4
1373.0,1.36,1.39,1.38
1375.0,1.33,1.38,1.39
1377.0,1.3,1.36,1.39
1379.0,1.36,1.38,1.42
1381.0,1.42,1.44,1.46
1383.0,1.42,1.45,1.45
1385.0,1.4,1.44,1.41
1387.0,1.43,1.47,1.41
1389.0,1.42,1.48,1.39
1391.0,1.4,1.49,1.35
1393.0,1.39,1.49,1.34
1395.0,1.39,1.5,1.32
1397.0,1.41,1.49,1.3
1399.0,1.42,1.53,1.33
1401.0,1.45,1.51,1.34
1403.0,1.46,1.51,1.34
1405.0,1.44,1.48,1.34
1408.0,1.41,1.45,1.36
1409.0,1.4,1.43,1.35
1411.0,1.41,1.46,1.32
1413.0,1.41,1.44,1.32
1415.0,1.4,1.39,1.35
1417.0,1.41,1.42,1.36
1419.0,1.43,1.43,1.35
1421.0,1.45,1.46,1.38
1423.0,1.45,1.49,1.41
1425.0,1.45,1.49,1.42
1427.0,1.46,1.48,1.4
1429.0,1.46,1.44,1.38
1431.0,1.44,1.43,1.38
1433.0,1.43,1.4,1.37
1435.0,1.44,1.4,1.38
1437.0,1.46,1.36,1.4
1439.0,1.46,1.34,1.37
1441.0,1.46,1.4,1.37
1443.0,1.45,1.39,1.38
1445.0,1.43,1.46,1.39
1447.0,1.46,1.52,1.42
1449.0,1.45,1.55,1.43
1452.0,1.46,1.57,1.42
1453.0,1.46,1.59,1.42
1455.0,1.46,1.61,1.42
1457.0,1.47,1.62,1.4
1459.0,1.49,1.64,1.37
1461.0,1.48,1.67,1.39
1463.0,1.47,1.65,1.39
1465.0,1.44,1.59,1.41
1467.0,1.46,1.54,1.43
1469.0,1.47,1.53,1.44
1471.0,1.46,1.58,1.44
1473.0,1.46,1.58,1.38
1475.0,1.46,1.55,1.37
1477.0,1.45,1.55,1.35
1479.0,1.45,1.55,1.38
1481.0,1.46,1.55,1.39
1483.0,1.47,1.52,1.38
1485.0,1.46,1.54,1.38
1487.0,1.46,1.51,1.43
1489.0,1.46,1.47,1.42
1491.0,1.47,1.45,1.42
1494.0,1.47,1.48,1.42
1495.0,1.45,1.46,1.43
1497.0,1.47,1.41,1.42
1499.0,1.49,1.38,1.44
1501.0,1.48,1.4,1.45
1503.0,1.45,1.39,1.43
1505.0,1.49,1.37,1.45
1507.0,1.48,1.38,1.43
1509.0,1.46,1.38,1.4
1511.0,1.46,1.38,1.4
1513.0,1.44,1.36,1.42
1515.0,1.42,1.38,1.45
1517.0,1.44,1.38,1.45
1519.0,1.47,1.37,1.45
1521.0,1.48,1.4,1.45
1523.0,1.48,1.42,1.44
1525.0,1.49,1.41,1.44
1527.0,1.47,1.37,1.47
1529.0,1.45,1.37,1.47
1531.0,1.44,1.36,1.46
1533.0,1.43,1.36,1.46
1536.0,1.44,1.38,1.45
1537.0,1.44,1.4,1.45
1539.0,1.44,1.42,1.47
1541.0,1.44,1.41,1.48
1543.0,1.45,1.38,1.49
1545.0,1.43,1.4,1.5
1547.0,1.47,1.37,1.51
1549.0,1.49,1.41,1.52
1551.0,1.45,1.41,1.53
1553.0,1.44,1.45,1.53
1555.0,1.42,1.41,1.5
1557.0,1.43,1.39,1.53
1559.0,1.42,1.4,1.55
1561.0,1.39,1.43,1.51
1563.0,1.35,1.47,1.49
1565.0,1.36,1.48,1.49
1567.0,1.37,1.46,1.52
1569.0,1.36,1.46,1.51
1571.0,1.35,1.5,1.5
1573.0,1.35,1.47,1.5
1575.0,1.35,1.43,1.49
1577.0,1.36,1.4,1.48
1580.0,1.36,1.43,1.48
1581.0,1.35,1.46,1.51
1583.0,1.3,1.47,1.52
1585.0,1.35,1.47,1.53
1587.0,1.38,1.46,1.55
1589.0,1.39,1.5,1.55
1591.0,1.38,1.49,1.51
1593.0,1.36,1.49,1.48
1595.0,1.37,1.47,1.48
1597.0,1.36,1.49,1.49
1599.0,1.37,1.52,1.49
1601.0,1.37,1.54,1.47
1603.0,1.37,1.54,1.46
1605.0,1.39,1.52,1.45
1607.0,1.39,1.49,1.47
1609.0,1.39,1.41,1.48
1611.0,1.38,1.41,1.48
1613.0,1.4,1.44,1.48
1615.0,1.42,1.46,1.46
1617.0,1.43,1.45,1.45
1619.0,1.45,1.48,1.44
1622.0,1.46,1.45,1.44
1623.0,1.45,1.44,1.45
1625.0,1.44,1.44,1.45
1627.0,1.44,1.45,1.44
1629.0,1.46,1.45,1.46
1631.0,1.49,1.43,1.45
1633.0,1.48,1.44,1.45
1635.0,1.47,1.45,1.47
1637.0,1.46,1.45,1.52
1639.0,1.46,1.41,1.54
1641.0,1.46,1.42,1.52
1643.0,1.45,1.46,1.53
1645.0,1.42,1.45,1.53
1647.0,1.44,1.44,1.51
1649.0,1.46,1.43,1.48
1651.0,1.46,1.44,1.46
1653.0,1.45,1.41,1.43
1655.0,1.44,1.43,1.46
1657.0,1.44,1.45,1.48
1659.0,1.45,1.42,1.47
1661.0,1.44,1.47,1.48
1664.0,1.42,1.49,1.46
1665.0,1.42,1.47,1.44
1667.0,1.43,1.45,1.44
1669.0,1.44,1.43,1.44
1671.0,1.43,1.43,1.44
1673.0,1.42,1.41,1.43
1675.0,1.42,1.39,1.44
1677.0,1.41,1.41,1.46
1679.0,1.42,1.48,1.47
1681.0,1.45,1.5,1.47
1683.0,1.44,1.5,1.46
1685.0,1.44,1.49,1.47
1687.0,1.44,1.5,1.52
1689.0,1.42,1.48,1.55
1691.0,1.42,1.46,1.53
1693.0,1.43,1.47,1.5
1695.0,1.43,1.51,1.46
1697.0,1.45,1.47,1.45
1699.0,1.46,1.46,1.48
1701.0,1.45,1.41,1.51
1703.0,1.43,1.39,1.5
1705.0,1.44,1.4,1.46
1708.0,1.45,1.44,1.45
1709.0,1.46,1.47,1.45
1711.0,1.44,1.47,1.46
1713.0,1.39,1.46,1.44
1715.0,1.42,1.46,1.44
1717.0,1.46,1.44,1.45
1719.0,1.47,1.44,1.45
1721.0,1.47,1.48,1.44
1723.0,1.46,1.5,1.45
1725.0,1.46,1.46,1.47
1727.0,1.45,1.44,1.47
1729.0,1.44,1.42,1.46
1731.0,1.44,1.42,1.44
1733.0,1.45,1.42,1.43
1735.0,1.45,1.41,1.43
1737.0,1.45,1.39,1.41
1739.0,1.45,1.42,1.46
1741.0,1.47,1.48,1.48
1743.0,1.48,1.45,1.5
1745.0,1.46,1.48,1.53
1747.0,1.45,1.47,1.51
1750.0,1.45,1.45,1.48
1751.0,1.44,1.45,1.46
1753.0,1.45,1.5,1.44
1755.0,1.45,1.47,1.42
1757.0,1.44,1.49,1.39
1759.0,1.45,1.49,1.4
1761.0,1.47,1.48,1.4
1763.0,1.47,1.42,1.4
1765.0,1.46,1.4,1.41
1767.0,1.45,1.41,1.44
1769.0,1.47,1.42,1.44
1771.0,1.47,1.42,1.42
1773.0,1.47,1.43,1.39
1775.0,1.46,1.44,1.36
1777.0,1.47,1.44,1.35
1779.0,1.48,1.43,1.38
1781.0,1.47,1.43,1.39
1783.0,1.46,1.43,1.4
1785.0,1.45,1.42,1.42
1787.0,1.46,1.43,1.43
1789.0,1.45,1.42,1.44
1792.0,1.4,1.46,1.45
1793.0,1.43,1.45,1.45
1795.0,1.47,1.44,1.45
1797.0,1.48,1.4,1.49
1799.0,1.48,1.42,1.5
1801.0,1.48,1.45,1.48
1803.0,1.48,1.44,1.46
1805.0,1.48,1.43,1.47
1807.0,1.48,1.44,1.45
1809.0,1.47,1.45,1.41
1811.0,1.46,1.45,1.39
1813.0,1.45,1.45,1.42
1815.0,1.45,1.44,1.45
1817.0,1.47,1.45,1.44
1819.0,1.48,1.46,1.43
1821.0,1.47,1.49,1.44
1823.0,1.44,1.48,1.42
1825.0,1.42,1.43,1.39
1827.0,1.39,1.4,1.41
1829.0,1.41,1.4,1.42
1831.0,1.42,1.41,1.39
1833.0,1.44,1.39,1.41
1836.0,1.44,1.39,1.42
1837.0,1.43,1.39,1.44
1839.0,1.44,1.42,1.45
1841.0,1.41,1.4,1.45
1843.0,1.42,1.41,1.43
1845.0,1.43,1.44,1.43
1847.0,1.43,1.43,1.44
1849.0,1.4,1.42,1.43
1851.0,1.39,1.46,1.39
1853.0,1.41,1.48,1.39
1855.0,1.42,1.46,1.4
1857.0,1.4,1.5,1.43
1859.0,1.42,1.48,1.46
1861.0,1.41,1.47,1.51
1863.0,1.42,1.45,1.51
1865.0,1.43,1.45,1.5
1867.0,1.42,1.49,1.48
1869.0,1.4,1.47,1.46
1871.0,1.43,1.44,1.45
1873.0,1.45,1.44,1.44
1875.0,1.43,1.44,1.44
1878.0,1.42,1.43,1.46
1879.0,1.44,1.24,1.47
1881.0,1.44,1.21,1.47
1883.0,1.41,1.27,1.47
1885.0,1.43,1.33,1.46
1887.0,1.45,1.35,1.46
1889.0,1.45,1.38,1.46
1891.0,1.44,1.44,1.45
1893.0,1.43,1.43,1.44
1895.0,1.43,1.44,1.44
1897.0,1.45,1.44,1.39
1899.0,1.43,1.5,1.38
1901.0,1.4,1.53,1.35
1903.0,1.39,1.85,1.34
1905.0,1.41,2.3,1.35
1907.0,1.42,2.43,1.34
1909.0,1.45,2.44,1.35
1911.0,1.47,2.5,1.38
1913.0,1.48,2.46,1.37
1915.0,1.5,2.38,1.4
1917.0,1.49,2.29,1.42
1920.0,1.49,2.24,1.45
1922.0,1.48,2.22,1.47
1923.0,1.47,2.17,1.46
1925.0,1.46,2.08,1.39
1927.0,1.43,2.05,1.35
1929.0,1.45,1.99,1.36
1931.0,1.46,1.95,1.3
1933.0,1.45,1.88,1.25
1935.0,1.49,1.83,1.23
1937.0,1.45,1.82,1.25
1939.0,1.42,1.82,1.28
1941.0,1.41,1.81,1.26
1943.0,1.43,1.77,1.25
1945.0,1.42,1.72,1.25
1947.0,1.4,1.67,1.26
1949.0,1.39,1.62,1.29
1951.0,1.4,1.55,1.31
1953.0,1.39,1.53,1.32
1955.0,1.39,1.52,1.33
1957.0,1.4,1.51,1.32
1959.0,1.41,1.52,1.32
1961.0,1.43,1.5,1.31
1964.0,1.45,1.52,1.29
1965.0,1.45,1.47,1.33
1967.0,1.4,1.45,1.33
1969.0,1.41,1.41,1.32
1971.0,1.44,1.37,1.3
1973.0,1.42,1.35,1.3
1975.0,1.41,1.33,1.32
1977.0,1.45,1.34,1.35
1979.0,1.45,1.39,1.34
1981.0,1.45,1.35,1.34
1983.0,1.46,1.33,1.32
1985.0,1.43,1.35,1.32
1987.0,1.44,1.38,1.33
1989.0,1.44,1.39,1.35
1991.0,1.44,1.36,1.34
1993.0,1.44,1.3,1.35
1995.0,1.45,1.26,1.39
1997.0,1.46,1.28,1.41
1999.0,1.45,1.34,1.43
2001.0,1.45,1.34,1.41
2003.0,1.44,1.33,1.4
2006.0,1.39,1.3,1.42
2007.0,1.4,1.27,1.41
2009.0,1.45,1.26,1.41
2011.0,1.47,1.23,1.42
2013.0,1.46,1.2,1.42
2015.0,1.43,1.22,1.45
2017.0,1.44,1.28,1.47
2019.0,1.42,1.32,1.52
2021.0,1.41,1.36,1.55
2023.0,1.43,1.35,1.56
2025.0,1.42,1.4,1.56
2027.0,1.39,1.42,1.53
2029.0,1.39,1.37,1.51
2031.0,1.38,1.36,1.48
2033.0,1.39,1.32,1.47
2035.0,1.4,1.29,1.48
2037.0,1.42,1.22,1.52
2039.0,1.43,1.22,1.54
2041.0,1.45,1.25,1.54
2043.0,1.43,1.25,1.56
2045.0,1.42,1.24,1.66
2048.0,1.44,1.24,1.7
2050.0,1.43,1.19,1.7
2051.0,1.43,1.19,1.69
2053.0,1.43,1.17,1.68
2055.0,1.43,1.19,1.69
2057.0,1.43,1.22,1.69
2059.0,1.43,1.22,1.67
2061.0,1.44,1.22,1.67
2063.0,1.46,1.2,1.65
2065.0,1.43,1.2,1.62
2067.0,1.43,1.2,1.61
2069.0,1.45,1.17,1.59
2071.0,1.42,1.17,1.58
2073.0,1.43,1.15,1.56
2075.0,1.44,1.14,1.56
2077.0,1.46,1.19,1.57
2079.0,1.47,1.21,1.56
2081.0,1.46,1.21,1.55
2083.0,1.47,1.21,1.56
2085.0,1.44,1.22,1.55
2087.0,1.43,1.23,1.53
2089.0,1.43,1.24,1.49
2092.0,1.43,1.24,1.47
2093.0,1.46,1.53,1.48
2095.0,1.46,1.65,1.49
2097.0,1.45,1.67,1.5
2099.0,1.42,1.68,1.48
2101.0,1.44,1.68,1.46
2103.0,1.45,1.65,1.45
2105.0,1.45,1.64,1.47
2107.0,1.44,1.59,1.49
2109.0,1.41,1.57,1.51
2111.0,1.39,1.54,1.5
2113.0,1.4,1.52,1.51
2115.0,1.44,1.5,1.52
2117.0,1.43,1.48,1.5
2119.0,1.44,1.48,1.51
2121.0,1.46,1.47,1.5
2123.0,1.45,1.44,1.5
2125.0,1.43,1.44,1.51
2127.0,1.45,1.44,1.5
2129.0,1.47,1.42,1.45
2131.0,1.45,1.39,1.42
2134.0,1.46,1.39,1.41
2136.0,1.47,1.39,1.4
2137.0,1.46,1.4,1.4
2139.0,1.45,1.38,1.42
2141.0,1.42,1.38,1.43
2143.0,1.4,1.36,1.44
2145.0,1.4,1.35,1.45
2147.0,1.38,1.31,1.44
2149.0,1.35,1.31,1.42
2151.0,1.38,1.31,1.46
2153.0,1.39,1.29,1.53
2155.0,1.4,1.32,1.54
2157.0,1.41,1.3,1.49
2159.0,1.42,1.31,1.46
2161.0,1.43,1.34,1.44
2163.0,1.45,1.33,1.4
2165.0,1.46,1.32,1.41
2167.0,1.47,1.35,1.4
2169.0,1.47,1.34,1.4
2171.0,1.45,1.35,1.39
2173.0,1.44,1.34,1.4
2176.0,1.41,1.34,1.43
2178.0,1.41,1.34,1.46
2179.0,1.44,1.33,1.49
2181.0,1.45,1.31,1.48
2183.0,1.48,1.32,1.46
2185.0,1.5,1.3,1.43
2187.0,1.52,1.3,1.44
2189.0,1.53,1.3,1.43
2191.0,1.52,1.3,1.44
2193.0,1.51,1.33,1.43
2195.0,1.51,1.35,1.42
2197.0,1.51,1.35,1.41
2199.0,1.52,1.36,1.4
2201.0,1.51,1.38,1.39
2203.0,1.49,1.4,1.36
2205.0,1.46,1.37,1.34
2207.0,1.43,1.37,1.35
2209.0,1.41,1.34,1.37
2211.0,1.41,1.31,1.38
2213.0,1.44,1.3,1.39
2215.0,1.43,1.32,1.4
2217.0,1.43,1.37,1.4
2220.0,1.45,1.33,1.4
2221.0,1.46,1.33,1.37
2223.0,1.47,1.38,1.38
2225.0,1.47,1.34,1.4
2227.0,1.45,1.36,1.39
2229.0,1.42,1.39,1.41
2231.0,1.42,1.35,1.41
2233.0,1.44,1.31,1.4
2235.0,1.45,1.29,1.41
2237.0,1.45,1.33,1.43
2239.0,1.45,1.33,1.41
2241.0,1.45,1.31,1.42
2243.0,1.44,1.32,1.44
2245.0,1.41,1.31,1.44
2247.0,1.41,1.29,1.46
2249.0,1.41,1.3,1.47
2251.0,1.41,1.24,1.49
2253.0,1.41,1.22,1.49
2255.0,1.41,1.17,1.52
2257.0,1.4,1.19,1.55
2259.0,1.42,1.25,1.57
2262.0,1.43,1.21,1.57
2264.0,1.43,1.29,1.55
2265.0,1.43,1.32,1.52
2267.0,1.44,1.32,1.48
2269.0,1.43,1.29,1.48
2271.0,1.44,1.25,1.47
2273.0,1.43,1.25,1.47
2275.0,1.4,1.26,1.48
2277.0,1.39,1.27,1.5
2279.0,1.4,1.28,1.51
2281.0,1.46,1.28,1.53
2283.0,1.49,1.25,1.54
2285.0,1.5,1.25,1.53
2287.0,1.47,1.25,1.5
2289.0,1.43,1.18,1.47
2291.0,1.47,1.16,1.45
2293.0,1.46,1.15,1.45
2295.0,1.47,1.16,1.41
2297.0,1.49,1.2,1.38
2299.0,1.51,1.25,1.39
2301.0,1.5,1.26,1.37
2304.0,1.41,1.22,1.36
2306.0,1.37,1.25,1.4
2307.0,1.46,1.28,1.41
2309.0,1.46,1.31,1.43
2311.0,1.45,1.35,1.45
2313.0,1.44,1.38,1.44
2315.0,1.43,1.36,1.47
2317.0,1.43,1.34,1.47
2319.0,1.43,1.3,1.46
2321.0,1.42,1.3,1.46
2323.0,1.42,1.32,1.45
2325.0,1.42,1.32,1.44
2327.0,1.41,1.36,1.44
2329.0,1.38,1.34,1.43
2331.0,1.36,1.36,1.42
2333.0,1.37,1.37,1.37
2335.0,1.37,1.36,1.36
2337.0,1.34,1.39,1.36
2339.0,1.4,1.41,1.37
2341.0,1.48,1.45,1.37
2343.0,1.47,1.44,1.38
2345.0,1.45,1.45,1.36
2348.0,1.44,1.46,1.35
2349.0,1.43,1.49,1.35
2351.0,1.44,1.5,1.37
2353.0,1.44,1.5,1.39
2355.0,1.46,1.55,1.39
2357.0,1.46,1.56,1.41
2359.0,1.48,1.5,1.41
2361.0,1.46,1.51,1.42
2363.0,1.44,1.51,1.4
2365.0,1.41,1.46,1.39
2367.0,1.42,1.5,1.38
2369.0,1.45,1.51,1.38
2371.0,1.47,1.55,1.37
2373.0,1.44,1.57,1.38
2375.0,1.41,1.56,1.4
2377.0,1.38,1.6,1.4
2379.0,1.43,1.57,1.4
2381.0,1.45,1.56,1.39
2383.0,1.44,1.54,1.4
2385.0,1.44,1.52,1.45
2387.0,1.43,1.5,1.48
2390.0,1.42,1.45,1.5
2392.0,1.41,1.37,1.52
2393.0,1.41,1.32,1.52
2395.0,1.41,1.32,1.48
2397.0,1.41,1.36,1.49
2399.0,1.39,1.39,1.5
2401.0,1.39,1.43,1.5
2403.0,1.42,1.44,1.5
2405.0,1.43,1.41,1.48
2407.0,1.41,1.43,1.47
2409.0,1.37,1.4,1.46
2411.0,1.43,1.4,1.47
2413.0,1.43,1.44,1.45
2415.0,1.43,1.43,1.45
2417.0,1.43,1.46,1.45
2419.0,1.41,1.49,1.45
2421.0,1.37,1.5,1.45
2423.0,1.4,1.51,1.44
2425.0,1.43,1.53,1.43
2427.0,1.39,1.55,1.43
2429.0,1.37,1.58,1.43
2432.0,1.42,1.62,1.43
2434.0,1.41,1.6,1.45
2435.0,1.4,1.59,1.44
2437.0,1.4,1.58,1.44
2439.0,1.41,1.57,1.44
2441.0,1.41,1.55,1.42
2443.0,1.42,1.56,1.41
2445.0,1.38,1.55,1.43
2447.0,1.39,1.55,1.45
2449.0,1.39,1.6,1.46
2451.0,1.41,1.59,1.46
2453.0,1.38,1.59,1.46
2455.0,1.37,1.58,1.44
2457.0,1.37,1.57,1.41
2459.0,1.39,1.56,1.41
2461.0,1.43,1.54,1.38
2463.0,1.43,1.56,1.38
2465.0,1.4,1.55,1.37
2467.0,1.4,1.49,1.35
2469.0,1.4,1.48,1.31
2471.0,1.39,1.45,1.3
2473.0,1.38,1.47,1.32
2476.0,1.43,1.48,1.33
2477.0,1.34,1.53,1.35
2479.0,1.46,1.6,1.37
2481.0,1.5,1.59,1.38
2483.0,1.47,1.6,1.38
2485.0,1.47,1.62,1.38
2487.0,1.46,1.61,1.37
2489.0,1.44,1.36,1.39
2491.0,1.43,1.32,1.39
2493.0,1.42,1.35,1.4
2495.0,1.45,1.39,1.43
2497.0,1.43,1.43,1.45
2499.0,1.43,1.44,1.44
2501.0,1.43,1.51,1.42
2503.0,1.41,2.4,1.41
2505.0,1.4,3.24,1.43
2507.0,1.4,3.3,1.45
2509.0,1.38,3.3,1.41
2511.0,1.42,3.3,1.35
2513.0,1.33,3.3,1.35
2515.0,1.28,3.3,1.39
2518.0,1.44,3.3,1.42
2520.0,1.49,3.3,1.42
2521.0,1.51,3.17,1.43
2523.0,1.46,3.13,1.45
2525.0,1.43,3.03,1.45
2527.0,1.46,2.9,1.46
2529.0,1.45,2.81,1.48
2531.0,1.41,2.69,1.46
2533.0,1.46,2.61,1.5
2535.0,1.51,2.54,1.49
2537.0,1.46,2.45,1.5
2539.0,1.46,2.35,1.52
2541.0,1.39,2.22,1.5
2543.0,1.58,2.21,1.51
2545.0,1.59,2.2,1.5
2547.0,1.45,2.1,1.46
2549.0,1.54,2.05,1.45
2551.0,1.56,1.99,1.45
2553.0,1.51,1.87,1.46
2555.0,1.49,1.85,1.43
2557.0,1.48,1.78,1.44
2560.0,1.36,1.76,1.43
2562.0,1.43,1.7,1.42
2563.0,1.59,1.67,1.45
2565.0,1.57,1.56,1.45
2567.0,1.52,1.54,1.45
2569.0,1.43,1.63,1.45
2571.0,1.44,1.52,1.45
2573.0,1.52,1.58,1.43
2575.0,1.5,1.59,1.42
2577.0,1.48,1.62,1.43
2579.0,1.46,1.62,1.45
2581.0,1.36,1.56,1.48
2583.0,1.41,1.49,1.48
2585.0,1.42,1.51,1.46
2587.0,1.42,1.43,1.48
2589.0,1.42,1.44,1.45
2591.0,1.37,1.45,1.47
2593.0,1.36,1.31,1.51
2595.0,1.36,1.37,1.54
2597.0,1.39,1.3,1.55
2599.0,1.4,1.42,1.57
2601.0,1.31,1.42,1.58
2604.0,1.52,1.34,1.57
2605.0,1.48,1.32,1.55
2607.0,1.48,1.27,1.53
2609.0,1.46,1.38,1.5
2611.0,1.32,1.28,1.49
2613.0,1.4,1.32,1.48
2615.0,1.44,1.23,1.46
2617.0,1.54,1.21,1.49
2619.0,1.55,1.22,1.51
2621.0,1.53,1.17,1.52
2623.0,1.52,1.2,1.5
2625.0,1.52,1.22,1.47
2627.0,1.54,1.26,1.47
2629.0,1.54,1.28,1.46
2631.0,1.52,1.28,1.45
2633.0,1.49,1.26,1.42
2635.0,1.48,1.28,1.4
2637.0,1.5,1.29,1.41
2639.0,1.52,1.28,1.42
2641.0,1.53,1.23,1.43
2643.0,1.53,1.13,1.43
2646.0,1.48,1.06,1.45
2648.0,1.5,1.0,1.45
2649.0,1.54,1.0,1.43
2651.0,1.54,0.91,1.42
2653.0,1.51,0.96,1.4
2655.0,1.42,1.04,1.38
2657.0,1.46,1.01,1.39
2659.0,1.61,1.02,1.41
2661.0,1.52,1.0,1.39
2663.0,1.46,1.0,1.39
2665.0,1.53,1.0,1.42
2667.0,1.48,1.04,1.42
2669.0,1.49,1.06,1.44
2671.0,1.46,1.06,1.46
2673.0,1.44,1.0,1.45
2675.0,1.45,0.98,1.46
2677.0,1.44,0.97,1.49
2679.0,1.4,0.99,1.5
2681.0,1.33,0.96,1.48
2683.0,1.38,0.93,1.46
2685.0,1.46,0.92,1.45
2688.0,1.44,0.9,1.45
2690.0,1.39,0.88,1.45
2691.0,1.38,0.93,1.44
2693.0,1.4,0.97,1.45
2695.0,1.35,0.97,1.43
2697.0,1.28,0.98,1.44
2699.0,1.34,1.04,1.45
2701.0,1.44,1.04,1.42
2703.0,1.44,1.02,1.42
2705.0,1.42,0.96,1.43
2707.0,1.42,0.8,1.42
2709.0,1.43,0.76,1.38
2711.0,1.39,0.77,1.33
2713.0,1.34,0.79,1.32
2715.0,1.4,0.83,1.34
2717.0,1.46,0.88,1.32
2719.0,1.5,0.96,1.34
2721.0,1.48,0.97,1.35
2723.0,1.47,1.05,1.36
2725.0,1.43,1.06,1.36
2727.0,1.43,1.05,1.35
2729.0,1.49,1.1,1.35
2732.0,1.51,1.13,1.36
2734.0,1.52,1.16,1.37
2735.0,1.49,1.15,1.38
2737.0,1.46,1.21,1.39
2739.0,1.42,1.22,1.41
2741.0,1.41,1.19,1.42
2743.0,1.35,1.19,1.43
2745.0,1.38,1.16,1.43
2747.0,1.5,1.17,1.44
2749.0,1.43,1.17,1.45
2751.0,1.39,1.2,1.43
2753.0,1.48,1.19,1.43
2755.0,1.5,1.21,1.42
2757.0,1.42,1.29,1.41
2759.0,1.5,1.36,1.41
2761.0,1.55,1.38,1.41
2763.0,1.53,1.34,1.41
2765.0,1.53,1.32,1.42
2767.0,1.53,1.33,1.45
2769.0,1.52,1.35,1.45
2771.0,1.52,1.34,1.45
2774.0,1.51,1.33,1.47
2776.0,1.54,1.3,1.47
2777.0,1.56,1.3,1.44
2779.0,1.55,1.3,1.44
2781.0,1.51,1.27,1.42
2783.0,1.52,1.29,1.41
2785.0,1.6,1.28,1.42
2787.0,1.53,1.27,1.45
2789.0,1.52,1.27,1.47
2791.0,1.54,1.25,1.47
2793.0,1.72,1.28,1.46
2795.0,1.63,1.32,1.45
2797.0,1.66,1.32,1.45
2799.0,1.68,1.3,1.43
2801.0,1.68,1.33,1.4
2803.0,1.62,1.34,1.41
2805.0,1.56,1.32,1.46
2807.0,1.57,1.33,1.46
2809.0,1.53,1.34,1.44
2811.0,1.54,1.3,1.45
2813.0,1.53,1.26,1.46
2816.0,1.49,1.3,1.46
2818.0,1.47,1.35,1.45
2819.0,1.41,1.42,1.4
2821.0,1.38,1.37,1.36
2823.0,1.44,1.44,1.35
2825.0,1.54,1.47,1.35
2827.0,1.68,1.46,1.35
2829.0,1.67,1.46,1.38
2831.0,1.57,1.43,1.4
2833.0,1.58,1.47,1.43
2835.0,1.5,1.45,1.44
2837.0,1.52,1.41,1.45
2839.0,1.53,1.45,1.44
2841.0,1.42,1.43,1.4
2843.0,1.51,1.47,1.39
2845.0,1.42,1.48,1.39
2847.0,1.24,1.49,1.37
2849.0,1.36,1.5,1.39
2851.0,1.43,1.48,1.39
2853.0,1.42,1.48,1.4
2855.0,1.41,1.46,1.39
2857.0,1.38,1.46,1.42
2860.0,1.41,1.43,1.45
2862.0,1.59,1.43,1.44
2863.0,1.56,1.44,1.44
2865.0,1.44,1.47,1.44
2867.0,1.41,1.49,1.43
2869.0,1.44,1.46,1.43
2871.0,1.53,1.47,1.41
2873.0,1.44,1.46,1.4
2875.0,1.35,1.46,1.41
2877.0,1.46,1.43,1.42
2879.0,1.45,1.43,1.42
2881.0,1.27,1.41,1.44
2883.0,1.29,1.43,1.47
2885.0,1.41,1.42,1.51
2887.0,1.47,1.43,1.55
2889.0,1.38,1.45,1.61
2891.0,1.43,1.46,1.61
2893.0,1.42,1.47,1.59
2895.0,1.35,1.46,1.54
2897.0,1.26,1.45,1.46
2899.0,1.34,1.42,1.43
2902.0,1.28,1.42,1.41
2904.0,1.29,1.41,1.42
2905.0,1.35,1.3,1.38
2907.0,1.45,1.2,1.36
2909.0,1.44,1.22,1.39
2911.0,1.41,1.22,1.4
2913.0,1.36,1.23,1.41
2915.0,1.22,1.31,1.41
2917.0,1.25,1.31,1.43
2919.0,1.35,1.34,1.43
2921.0,1.44,1.36,1.39
2923.0,1.49,1.34,1.38
2925.0,1.44,1.38,1.37
2927.0,1.46,1.23,1.38
2929.0,1.38,1.22,1.4
2931.0,1.41,1.38,1.41
2933.0,1.44,1.43,1.41
2935.0,1.44,1.43,1.44
2937.0,1.46,1.45,1.44
2939.0,1.48,1.46,1.43
2941.0,1.36,1.48,1.4
2944.0,1.3,1.49,1.4
2946.0,1.39,1.49,1.41
2947.0,1.34,1.53,1.4
2949.0,1.59,1.53,1.39
2951.0,1.58,1.54,1.4
2953.0,1.5,1.52,1.41
2955.0,1.45,1.48,1.45
2957.0,1.46,1.52,1.49
2959.0,1.48,1.55,1.49
2961.0,1.64,1.54,1.47
2963.0,1.67,1.56,1.45
2965.0,1.67,1.58,1.43
2967.0,1.68,1.57,1.43
2969.0,1.66,1.62,1.42
2971.0,1.64,1.61,1.43
2973.0,1.59,1.6,1.44
2975.0,1.57,1.61,1.45
2977.0,1.61,1.56,1.44
2979.0,1.61,1.56,1.45
2981.0,1.57,1.55,1.44
2983.0,1.51,1.55,1.44
2985.0,1.54,1.59,1.41
2988.0,1.59,1.55,1.39
2990.0,1.6,1.5,1.36
2991.0,1.57,1.56,1.36
2993.0,1.55,1.61,1.39
2995.0,1.57,1.62,1.42
2997.0,1.51,1.66,1.39
2999.0,1.5,1.68,1.39
3001.0,1.43,1.69,1.39
3003.0,1.33,1.67,1.41
3005.0,1.63,1.62,1.44
3007.0,1.71,1.6,1.44
3009.0,1.62,1.59,1.42
3011.0,1.54,1.58,1.43
3013.0,1.5,1.57,1.44
3015.0,1.47,1.57,1.44
3017.0,1.49,1.57,1.44
3019.0,1.47,1.59,1.44
3021.0,1.42,1.6,1.45
3023.0,1.46,1.6,1.42
3025.0,1.49,1.56,1.37
3027.0,1.49,1.52,1.34
3030.0,1.46,1.46,1.33
3032.0,1.41,1.44,1.34
3033.0,1.42,1.48,1.35
3035.0,1.4,1.53,1.35
3037.0,1.34,1.51,1.36
3039.0,1.45,1.54,1.36
3041.0,1.36,1.5,1.37
3043.0,1.46,1.47,1.38
3045.0,1.52,1.51,1.4
3047.0,1.47,1.51,1.41
3049.0,1.45,1.53,1.44
3051.0,1.4,1.56,1.43
3053.0,1.41,1.59,1.43
3055.0,1.41,1.57,1.44
3057.0,1.42,1.53,1.45
3059.0,1.39,1.53,1.46
3061.0,1.38,1.52,1.44
3063.0,1.37,1.53,1.44
3065.0,1.34,1.53,1.44
3067.0,1.34,1.55,1.41
3069.0,1.27,1.53,1.36
3072.0,1.27,1.57,1.34
3074.0,1.34,1.64,1.35
3076.0,1.4,1.64,1.38
3077.0,1.39,1.66,1.41
3079.0,1.45,1.63,1.37
3081.0,1.41,1.63,1.33
3083.0,1.43,1.6,1.35
3085.0,1.33,1.57,1.4
3087.0,1.37,1.58,1.42
3089.0,1.36,1.56,1.42
3091.0,1.33,1.54,1.43
3093.0,1.37,1.49,1.42
3095.0,1.4,1.48,1.41
3097.0,1.42,1.52,1.38
3099.0,1.36,1.52,1.36
3101.0,1.37,1.51,1.35
3103.0,1.35,1.47,1.34
3105.0,1.5,1.46,1.35
3107.0,1.43,1.46,1.34
3109.0,1.35,1.58,1.32
3111.0,1.41,1.66,1.31
3113.0,1.39,1.63,1.3
3116.0,1.45,1.69,1.35
3118.0,1.44,1.73,1.37
3119.0,1.34,1.75,1.36
3121.0,1.36,1.73,1.35
3123.0,1.34,1.71,1.34
3125.0,1.39,1.69,1.34
3127.0,1.42,1.66,1.35
3129.0,1.37,1.65,1.35
3131.0,1.34,1.63,1.34
3133.0,1.35,1.61,1.35
3135.0,1.38,1.6,1.39
3137.0,1.39,1.62,1.43
3139.0,1.49,1.62,1.44
3141.0,1.49,1.62,1.41
3143.0,1.45,1.56,1.4
3145.0,1.37,1.55,1.36
3147.0,1.36,1.53,1.35
3149.0,1.44,1.49,1.35
3151.0,1.47,1.48,1.34
3153.0,1.5,1.47,1.34
3155.0,1.47,1.43,1.34
3158.0,1.45,1.42,1.35
3160.0,1.44,1.44,1.35
3161.0,1.47,1.45,1.35
3163.0,1.45,1.41,1.35
3165.0,1.44,1.37,1.39
3167.0,1.47,1.35,1.4
3169.0,1.42,1.35,1.4
3171.0,1.23,1.35,1.41
3173.0,1.43,1.37,1.39
3175.0,1.46,1.4,1.39
3177.0,1.47,1.41,1.41
3179.0,1.46,1.38,1.4
3181.0,1.43,1.38,1.39
3183.0,1.43,1.35,1.39
3185.0,1.41,1.36,1.41
3187.0,1.37,1.35,1.41
3189.0,1.35,1.37,1.42
3191.0,1.31,1.35,1.4
3193.0,1.28,1.33,1.4
3195.0,1.32,1.33,1.38
3197.0,1.34,1.35,1.39
3200.0,1.33,1.34,1.38
3202.0,1.32,1.37,1.39
3204.0,1.31,1.35,1.41
3205.0,1.34,1.34,1.42
3207.0,1.35,1.32,1.42
3209.0,1.29,1.3,1.45
3211.0,1.25,1.3,1.45
3213.0,1.36,1.3,1.5
3215.0,1.41,1.34,1.56
3217.0,1.38,1.34,1.58
3219.0,1.39,1.34,1.57
3221.0,1.38,1.33,1.56
3223.0,1.34,1.32,1.55
3225.0,1.33,1.36,1.57
3227.0,1.37,1.4,1.56
3229.0,1.37,1.38,1.52
3231.0,1.39,1.31,1.5
3233.0,1.32,1.3,1.48
3235.0,1.23,1.27,1.49
3237.0,1.43,1.2,1.49
3239.0,1.44,1.14,1.46
3241.0,1.42,1.14,1.46
3244.0,1.43,1.14,1.47
3246.0,1.45,1.16,1.51
3247.0,1.42,1.17,1.55
3249.0,1.39,1.19,1.51
3251.0,1.37,1.2,1.48
3253.0,1.37,1.24,1.47
3255.0,1.24,1.27,1.49
3257.0,1.25,1.28,1.52
3259.0,1.45,1.26,1.54
3261.0,1.47,1.26,1.55
3263.0,1.41,1.29,1.56
3265.0,1.37,1.29,1.55
3267.0,1.36,1.31,1.58
3269.0,1.36,1.32,1.59
3271.0,1.36,1.29,1.57
3273.0,1.47,1.26,1.56
3275.0,1.42,1.27,1.57
3277.0,1.4,1.29,1.58
3279.0,1.41,1.3,1.57
3281.0,1.41,1.36,1.56
3283.0,1.41,1.39,1.55
3286.0,1.41,1.41,1.55
3288.0,1.4,1.43,1.54
3289.0,1.42,1.39,1.53
3291.0,1.44,1.36,1.54
3293.0,1.45,1.4,1.54
3295.0,1.46,1.43,1.55
3297.0,1.43,1.4,1.58
3299.0,1.46,1.39,1.56
3301.0,1.53,1.43,1.55
3303.0,1.45,1.43,1.54
3305.0,1.37,1.41,1.55
3307.0,1.42,1.37,1.56
3309.0,1.46,1.39,1.53
3311.0,1.51,1.4,1.53
3313.0,1.45,1.41,1.55
3315.0,1.41,1.42,1.56
3317.0,1.47,1.45,1.55
3319.0,1.44,1.43,1.54
3321.0,1.4,1.45,1.55
3323.0,1.38,1.52,1.54
3325.0,1.34,1.54,1.52
3328.0,1.31,1.54,1.49
3330.0,1.34,1.53,1.48
3332.0,1.32,1.51,1.47
3333.0,1.3,1.54,1.47
3335.0,1.26,1.57,1.46
3337.0,1.25,1.6,1.48
3339.0,1.26,1.57,1.5
3341.0,1.31,1.56,1.51
3343.0,1.32,1.55,1.49
3345.0,1.21,1.55,1.44
3347.0,1.35,1.51,1.43
3349.0,1.4,1.52,1.43
3351.0,1.31,1.47,1.45
3353.0,1.35,1.45,1.48
3355.0,1.3,1.46,1.47
3357.0,1.3,1.5,1.47
3359.0,1.41,1.51,1.47
3361.0,1.42,1.51,1.45
3363.0,1.41,1.52,1.42
3365.0,1.41,1.51,1.43
3367.0,1.44,1.53,1.45
3369.0,1.63,1.54,1.44
3372.0,1.64,1.54,1.42
3374.0,1.61,1.55,1.42
3375.0,1.62,1.59,1.45
3377.0,1.6,1.56,1.49
3379.0,1.56,1.52,1.49
3381.0,1.56,1.51,1.48
3383.0,1.49,1.52,1.47
3385.0,1.46,1.51,1.45
3387.0,1.47,1.46,1.45
3389.0,1.52,1.47,1.45
3391.0,1.48,1.46,1.46
3393.0,1.45,1.44,1.47
3395.0,1.42,1.47,1.46
3397.0,1.42,1.48,1.45
3399.0,1.44,1.5,1.44
3401.0,1.47,1.53,1.45
3403.0,1.43,1.54,1.48
3405.0,1.37,1.52,1.46
3407.0,1.4,1.47,1.45
3409.0,1.37,1.47,1.47
3411.0,1.38,1.49,1.48
3414.0,1.37,1.5,1.5
3416.0,1.38,1.52,1.5
3417.0,1.38,1.53,1.48
3419.0,1.35,1.53,1.49
3421.0,1.32,1.52,1.49
3423.0,1.41,1.51,1.47
3425.0,1.34,1.47,1.44
3427.0,1.26,1.35,1.46
3429.0,1.35,1.37,1.45
3431.0,1.45,1.39,1.43
3433.0,1.51,1.4,1.45
3435.0,1.49,1.42,1.5
3437.0,1.43,1.47,1.53
3439.0,1.37,1.51,1.53
3441.0,1.39,1.53,1.53
3443.0,1.37,1.58,1.51
3445.0,1.34,1.71,1.52
3447.0,1.32,1.82,1.51
3449.0,1.32,1.88,1.51
3451.0,1.33,1.91,1.52
3453.0,1.35,1.91,1.52
3456.0,1.36,1.86,1.49
3458.0,1.33,1.86,1.47
3460.0,1.37,1.9,1.47
3461.0,1.4,1.89,1.44
3463.0,1.42,1.9,1.42
3465.0,1.42,1.86,1.42
3467.0,1.36,1.83,1.4
3469.0,1.4,1.81,1.39
3471.0,1.37,1.77,1.39
3473.0,1.35,1.8,1.36
3475.0,1.41,1.8,1.35
3477.0,1.41,1.79,1.34
3479.0,1.42,1.8,1.35
3481.0,1.39,1.76,1.35
3483.0,1.35,1.79,1.33
3485.0,1.38,1.8,1.34
3487.0,1.42,1.74,1.37
3489.0,1.39,1.68,1.4
3491.0,1.34,1.64,1.42
3493.0,1.43,1.62,1.45
3495.0,1.34,1.62,1.47
3497.0,1.43,1.61,1.46
3500.0,1.46,1.56,1.45
3502.0,1.47,1.57,1.46
3503.0,1.45,1.59,1.48
3505.0,1.45,1.57,1.46
3507.0,1.45,1.54,1.44
3509.0,1.41,1.55,1.42
3511.0,1.41,1.51,1.42
3513.0,1.41,1.45,1.43
3515.0,1.4,1.42,1.43
3517.0,1.45,1.48,1.43
3519.0,1.57,1.52,1.43
3521.0,1.55,1.52,1.42
3523.0,1.44,1.54,1.4
3525.0,1.54,1.54,1.36
3527.0,1.6,1.53,1.34
3529.0,1.57,1.55,1.34
3531.0,1.56,1.51,1.36
3533.0,1.57,1.47,1.36
3535.0,1.58,1.44,1.39
3537.0,1.56,1.43,1.4
3539.0,1.53,1.41,1.39
3542.0,1.51,1.37,1.39
3544.0,1.49,1.37,1.4
3545.0,1.49,1.37,1.44
3547.0,1.57,1.37,1.45
3549.0,1.63,1.37,1.44
3551.0,1.57,1.41,1.42
3553.0,1.56,1.42,1.41
3555.0,1.58,1.43,1.41
3557.0,1.95,1.42,1.42
3559.0,2.05,1.38,1.42
3561.0,1.99,1.38,1.43
3563.0,1.96,1.37,1.42
3565.0,1.87,1.35,1.41
3567.0,1.79,1.34,1.4
3569.0,1.74,1.33,1.41
3571.0,1.73,1.35,1.39
3573.0,1.7,1.38,1.39
3575.0,1.65,1.39,1.38
3577.0,1.59,1.4,1.36
3579.0,1.53,1.35,1.34
3581.0,1.49,1.35,1.34
3584.0,1.57,1.36,1.37
3586.0,1.54,1.35,1.38
3588.0,1.41,1.34,1.4
3589.0,1.42,1.31,1.37
3591.0,1.48,1.31,1.38
3593.0,1.5,1.3,1.39
3595.0,1.48,1.3,1.42
3597.0,1.45,1.34,1.42
3599.0,1.42,1.33,1.42
3601.0,1.37,1.33,1.44
3603.0,1.31,1.37,1.47
3605.0,1.4,1.37,1.5
3607.0,1.36,1.39,1.53
3609.0,1.36,1.35,1.54
3611.0,1.3,1.35,1.56
3613.0,1.32,1.38,1.59
3615.0,1.35,1.41,1.55
3617.0,1.43,1.42,1.53
3619.0,1.43,1.38,1.52
3621.0,1.39,1.38,1.53
3623.0,1.31,1.38,1.53
3625.0,1.26,1.37,1.52
3628.0,1.34,1.38,1.51
3630.0,1.31,1.36,1.46
3631.0,1.33,1.36,1.46
3633.0,1.44,1.39,1.48
3635.0,1.44,1.43,1.5
3637.0,1.44,1.45,1.48
3639.0,1.41,1.45,1.43
3641.0,1.41,1.43,1.43
3643.0,1.35,1.43,1.41
3645.0,1.34,1.45,1.4
3647.0,1.41,1.47,1.38
3649.0,1.39,1.45,1.38
3651.0,1.37,1.44,1.38
3653.0,1.37,1.47,1.4
3655.0,1.36,1.45,1.44
3657.0,1.36,1.43,1.45
3659.0,1.35,1.45,1.44
3661.0,1.34,1.44,1.43
3663.0,1.31,1.4,1.44
3665.0,1.28,1.38,1.45
3667.0,1.34,1.38,1.46
3670.0,1.32,1.42,1.43
3672.0,1.37,1.39,1.4
3673.0,1.36,1.35,1.4
3675.0,1.37,1.38,1.42
3677.0,1.37,1.42,1.41
3679.0,1.38,1.45,1.4
3681.0,1.35,1.45,1.39
3683.0,1.34,1.43,1.38
3685.0,1.36,1.4,1.39
3687.0,1.37,1.36,1.38
3689.0,1.28,1.36,1.37
3691.0,1.39,1.4,1.42
3693.0,1.39,1.41,1.44
3695.0,1.44,1.44,1.46
3697.0,1.45,1.45,1.48
3699.0,1.44,1.39,1.51
3701.0,1.45,1.4,1.51
3703.0,1.44,1.41,1.51
3705.0,1.41,1.38,1.51
3707.0,1.4,1.38,1.5
3709.0,1.37,1.36,1.49
3712.0,1.41,1.35,1.49
3714.0,1.37,1.34,1.5
3716.0,1.34,1.39,1.5
3717.0,1.42,1.41,1.48
3719.0,1.44,1.44,1.47
3721.0,1.42,1.47,1.44
3723.0,1.42,1.51,1.44
3725.0,1.39,1.5,1.42
3727.0,1.38,1.48,1.43
3729.0,1.35,1.46,1.46
3731.0,1.33,1.45,1.47
3733.0,1.38,1.49,1.49
3735.0,1.46,1.51,1.49
3737.0,1.46,1.48,1.47
3739.0,1.46,1.44,1.45
3741.0,1.48,1.4,1.45
3743.0,1.47,1.35,1.46
3745.0,1.45,1.36,1.45
3747.0,1.48,1.39,1.45
3749.0,1.46,1.38,1.47
3751.0,1.41,1.37,1.46
3753.0,1.48,1.4,1.45
3756.0,1.48,1.42,1.45
3758.0,1.45,1.43,1.44
3759.0,1.42,1.38,1.41
3761.0,1.45,1.38,1.41
3763.0,1.43,1.38,1.39
3765.0,1.44,1.4,1.35
3767.0,1.46,1.39,1.34
3769.0,1.45,1.41,1.34
3771.0,1.43,1.41,1.37
3773.0,1.42,1.4,1.41
3775.0,1.42,1.42,1.49
3777.0,1.45,1.42,1.49
3779.0,1.45,1.41,1.5
3781.0,1.38,1.4,1.49
3783.0,1.43,1.4,1.48
3785.0,1.38,1.4,1.5
3787.0,1.47,1.43,1.47
3789.0,1.43,1.43,1.46
3791.0,1.43,1.47,1.49
3793.0,1.47,1.48,1.49
3795.0,1.48,1.51,1.48
3798.0,1.39,1.52,1.48
3800.0,1.39,1.52,1.47
3801.0,1.45,1.53,1.44
3803.0,1.44,1.51,1.44
3805.0,1.36,1.51,1.43
3807.0,1.4,1.52,1.4
3809.0,1.42,1.49,1.39
3811.0,1.4,1.46,1.39
3813.0,1.4,1.46,1.41
3815.0,1.37,1.46,1.45
3817.0,1.35,1.44,1.45
3819.0,1.36,1.43,1.42
3821.0,1.38,1.43,1.42
3823.0,1.39,1.44,1.41
3825.0,1.41,1.44,1.42
3827.0,1.49,1.43,1.43
3829.0,1.46,1.4,1.41
3831.0,1.45,1.42,1.42
3833.0,1.44,1.46,1.42
3835.0,1.42,1.49,1.44
3837.0,1.45,1.52,1.41
3840.0,1.47,1.56,1.38
3842.0,1.47,1.54,1.4
3844.0,1.4,1.52,1.4
3845.0,1.4,1.5,1.39
3847.0,1.43,1.49,1.37
3849.0,1.44,1.48,1.36
3851.0,1.46,1.48,1.41
3853.0,1.49,1.47,1.41
3855.0,1.48,1.45,1.39
3857.0,1.47,1.47,1.38
3859.0,1.46,1.46,1.4
3861.0,1.41,1.46,1.39
3863.0,1.38,1.43,1.4
3865.0,1.47,1.42,1.39
3867.0,1.4,1.43,1.4
3869.0,1.42,1.44,1.43
3871.0,1.5,1.45,1.45
3873.0,1.49,1.47,1.45
3875.0,1.46,1.51,1.43
3877.0,1.45,1.51,1.43
3879.0,1.46,1.48,1.42
3881.0,1.51,1.45,1.41
3884.0,1.5,1.44,1.39
3886.0,1.39,1.4,1.4
3887.0,1.36,1.4,1.38
3889.0,1.42,1.37,1.38
3891.0,1.42,1.39,1.39
3893.0,1.5,1.39,1.42
3895.0,1.52,1.44,1.43
3897.0,1.49,1.48,1.43
3899.0,1.44,1.51,1.42
3901.0,1.36,1.47,1.4
3903.0,1.45,1.47,1.4
3905.0,1.47,1.48,1.38
3907.0,1.43,1.48,1.38
3909.0,1.41,1.43,1.39
3911.0,1.39,1.26,1.39
3913.0,1.37,1.24,1.38
3915.0,1.4,1.27,1.39
3917.0,1.4,1.28,1.44
3919.0,1.38,1.26,1.45
3921.0,1.38,1.25,1.45
3923.0,1.37,1.31,1.45
3926.0,1.4,1.44,1.42
3928.0,1.44,1.47,1.4
3930.0,1.35,1.49,1.38
3931.0,1.32,1.52,1.39
3933.0,1.4,1.52,1.41
3935.0,1.41,1.52,1.45
3937.0,1.44,1.52,1.44
3939.0,1.45,1.5,1.4
3941.0,1.45,1.48,1.39
3943.0,1.45,1.51,1.38
3945.0,1.39,1.47,1.38
3947.0,1.44,1.45,1.36
3949.0,1.49,1.46,1.36
3951.0,1.47,1.47,1.38
3953.0,1.55,1.46,1.4
3955.0,1.55,1.47,1.45
3957.0,1.55,1.46,1.45
3959.0,1.54,1.47,1.45
3961.0,1.54,1.48,1.43
3963.0,1.51,1.45,1.41
3965.0,1.5,1.45,1.42
3968.0,1.48,1.45,1.42
3970.0,1.46,1.45,1.42
3972.0,1.44,1.45,1.43
3973.0,1.46,1.42,1.43
3975.0,1.42,1.41,1.44
3977.0,1.37,1.39,1.45
3979.0,1.42,1.4,1.45
3981.0,1.37,1.4,1.43
3983.0,1.31,1.41,1.44
3985.0,1.43,1.4,1.41
3987.0,1.43,1.42,1.42
3989.0,1.43,1.45,1.42
3991.0,1.42,1.45,1.47
3993.0,1.47,1.47,1.48
3995.0,1.42,1.49,1.48
3997.0,1.42,1.5,1.48
3999.0,1.42,1.46,1.47
4001.0,1.44,1.5,1.46
4003.0,1.43,1.47,1.45
4005.0,1.42,1.43,1.45
4007.0,1.41,1.42,1.42
4009.0,1.4,1.38,1.45
4012.0,1.42,1.41,1.47
4014.0,1.39,1.46,1.45
4015.0,1.34,1.46,1.44
4017.0,1.38,1.45,1.44
4019.0,1.45,1.46,1.44
4021.0,1.45,1.44,1.44
4023.0,1.43,1.38,1.44
4025.0,1.37,1.41,1.45
4027.0,1.37,1.41,1.45
4029.0,1.52,1.41,1.45
4031.0,1.5,1.43,1.44
4033.0,1.41,1.45,1.45
4035.0,1.4,1.47,1.45
4037.0,1.45,1.46,1.42
4039.0,1.45,1.53,1.44
4041.0,1.42,1.48,1.44
4043.0,1.4,1.44,1.45
4045.0,1.39,1.36,1.45
4047.0,1.4,1.36,1.44
4049.0,1.4,1.38,1.45
4051.0,1.39,1.4,1.47
4054.0,1.35,1.44,1.51
4056.0,1.25,1.46,1.51
4058.0,1.38,1.48,1.5
4059.0,1.43,1.45,1.48
4061.0,1.51,1.43,1.48
4063.0,1.47,1.44,1.49
4065.0,1.44,1.46,1.5
4067.0,1.45,1.43,1.52
4069.0,1.44,1.39,1.51
4071.0,1.43,1.38,1.5
4073.0,1.35,1.37,1.48
4075.0,1.36,1.37,1.49
4077.0,1.43,1.37,1.47
4079.0,1.44,1.38,1.45
4081.0,1.42,1.36,1.47
4083.0,1.4,1.39,1.48
4085.0,1.37,1.4,1.48
4087.0,1.41,1.36,1.48
4089.0,1.44,1.36,1.47
4091.0,1.45,1.37,1.49
4093.0,1.46,1.4,1.49
4096.0,1.44,1.44,1.49
4098.0,1.4,1.45,1.47
4100.0,1.45,1.44,1.45
4101.0,1.41,1.44,1.45
4103.0,1.4,1.47,1.47
4105.0,1.43,1.47,1.47
4107.0,1.45,1.48,1.44
4109.0,1.46,1.46,1.41
4111.0,1.46,1.49,1.41
4113.0,1.39,1.48,1.42
4115.0,1.41,1.49,1.46
4117.0,1.48,1.48,1.46
4119.0,1.5,1.42,1.45
4121.0,1.46,1.35,1.42
4123.0,1.41,1.32,1.41
4125.0,1.41,1.35,1.41
4127.0,1.43,1.42,1.39
4129.0,1.42,1.45,1.38
4131.0,1.42,1.45,1.37
4133.0,1.45,1.47,1.38
4135.0,1.46,1.49,1.39
4137.0,1.44,1.51,1.41
4140.0,1.45,1.51,1.41
4142.0,1.47,1.45,1.4
4143.0,1.4,1.47,1.41
4145.0,1.43,1.47,1.41
4147.0,1.43,1.45,1.44
4149.0,1.4,1.5,1.41
4151.0,1.37,1.48,1.41
4153.0,1.37,1.48,1.42
4155.0,1.43,1.49,1.45
4157.0,1.43,1.47,1.45
4159.0,1.44,1.56,1.43
4161.0,1.4,1.61,1.42
4163.0,1.29,1.63,1.41
4165.0,1.36,1.62,1.4
4167.0,1.4,1.58,1.42
4169.0,1.38,1.54,1.43
4171.0,1.38,1.53,1.41
4173.0,1.36,1.57,1.41
4175.0,1.38,1.61,1.42
4177.0,1.42,1.6,1.4
4179.0,1.43,1.58,1.38
4182.0,1.42,1.58,1.36
4184.0,1.41,1.59,1.37
4186.0,1.4,1.56,1.36
4187.0,1.39,1.53,1.37
4189.0,1.44,1.52,1.39
4191.0,1.48,1.39,1.4
4193.0,1.45,1.3,1.42
4195.0,1.45,1.29,1.43
4197.0,1.49,1.33,1.43
4199.0,1.48,1.35,1.42
4201.0,1.42,1.35,1.4
4203.0,1.52,1.37,1.43
4205.0,1.47,1.39,1.43
4207.0,1.44,1.36,1.45
4209.0,1.46,1.34,1.47
4211.0,1.47,1.35,1.47
4213.0,1.47,1.43,1.47
4215.0,1.48,1.49,1.46
4217.0,1.52,1.54,1.44
4219.0,1.51,1.58,1.4
4221.0,1.49,1.61,1.42
4224.0,1.47,1.62,1.41
4226.0,1.47,1.58,1.4
4228.0,1.47,1.57,1.42
4229.0,1.45,1.56,1.43
4231.0,1.43,1.52,1.44
4233.0,1.48,1.52,1.48
4235.0,1.51,1.54,1.49
4237.0,1.52,1.55,1.48
4239.0,1.48,1.59,1.51
4241.0,1.45,1.58,1.56
4243.0,1.42,1.55,1.6
4245.0,1.46,1.57,1.61
4247.0,1.48,1.57,1.58
4249.0,1.48,1.57,1.57
4251.0,1.53,1.57,1.59
4253.0,1.54,1.51,1.59
4255.0,1.54,1.45,1.56
4257.0,1.5,1.41,1.54
4259.0,1.5,1.43,1.51
4261.0,1.48,1.41,1.5
4263.0,1.47,1.39,1.5
4265.0,1.46,1.39,1.47
4268.0,1.45,1.41,1.42
4270.0,1.45,1.41,1.41
4271.0,1.46,1.42,1.42
4273.0,1.47,1.43,1.43
4275.0,1.46,1.39,1.43
4277.0,1.39,1.34,1.41
4279.0,1.49,1.35,1.41
4281.0,1.48,1.34,1.42
4283.0,1.43,1.3,1.41
4285.0,1.45,1.25,1.41
4287.0,1.47,1.21,1.43
4289.0,1.53,1.22,1.44
4291.0,1.49,1.24,1.43
4293.0,1.46,1.26,1.42
4295.0,1.52,1.27,1.41
4297.0,1.44,1.27,1.41
4299.0,1.5,1.27,1.41
4301.0,1.51,1.23,1.42
4303.0,1.47,1.25,1.44
4305.0,1.5,1.28,1.42
4307.0,1.49,1.33,1.39
4310.0,1.42,1.36,1.41
4312.0,1.51,1.35,1.44
4314.0,1.52,1.37,1.45
4315.0,1.52,1.38,1.42
4317.0,1.53,3.15,1.43
4319.0,1.53,3.3,1.4
4321.0,1.46,3.3,1.39
4323.0,1.39,3.3,1.4
4325.0,1.47,3.3,1.42
4327.0,1.49,3.3,1.4
4329.0,1.46,3.3,1.4
4331.0,1.47,3.3,1.42
4333.0,1.49,3.3,1.44
4335.0,1.46,3.3,1.46
4337.0,1.39,3.3,1.45
4339.0,1.45,3.3,1.46
4341.0,1.45,3.3,1.49
4343.0,1.45,3.3,1.51
4345.0,1.45,3.3,1.49
4347.0,1.43,3.3,1.47
4349.0,1.42,3.3,1.48
4352.0,1.45,3.3,1.49
4354.0,1.47,3.3,1.48
4356.0,1.45,3.3,1.48
4357.0,1.43,3.3,1.48
4359.0,1.34,3.3,1.49
4361.0,1.36,3.3,1.49
4363.0,1.46,3.26,1.5
4365.0,1.46,3.1,1.5
4367.0,1.47,2.95,1.49
4369.0,1.42,2.83,1.49
4371.0,1.43,2.66,1.46
4373.0,1.41,2.56,1.45
4375.0,1.42,2.45,1.46
4377.0,1.49,2.37,1.46
4379.0,1.47,2.26,1.45
4381.0,1.46,2.17,1.42
4383.0,1.45,2.08,1.39
4385.0,1.44,1.96,1.39
4387.0,1.41,1.88,1.39
4389.0,1.39,1.83,1.39
4391.0,1.43,1.8,1.39
4393.0,1.43,1.75,1.4
4396.0,1.44,1.68,1.42
4398.0,1.38,1.57,1.44
4399.0,1.43,1.48,1.44
4401.0,1.4,1.41,1.44
4403.0,1.38,1.33,1.45
4405.0,1.41,1.3,1.42
4407.0,1.43,1.22,1.42
4409.0,1.43,1.17,1.46
4411.0,1.42,1.15,1.48
4413.0,1.42,1.11,1.49
4415.0,1.43,1.09,1.53
4417.0,1.38,1.06,1.56
4419.0,1.41,1.07,1.56
4421.0,1.42,1.08,1.55
4423.0,1.43,1.05,1.54
4425.0,1.42,1.0,1.53
4427.0,1.4,0.99,1.52
4429.0,1.41,1.0,1.5
4431.0,1.37,0.94,1.45
4433.0,1.34,0.89,1.46
4435.0,1.38,0.89,1.47
4438.0,1.34,0.91,1.45
4440.0,1.41,0.92,1.42
4442.0,1.38,0.92,1.39
4443.0,1.35,0.89,1.41
4445.0,1.34,0.91,1.38
4447.0,1.34,0.92,1.39
4449.0,1.34,0.91,1.41
4451.0,1.36,0.88,1.39
4453.0,1.34,0.88,1.42
4455.0,1.31,0.85,1.43
4457.0,1.33,0.85,1.4
4459.0,1.34,0.85,1.38
4461.0,1.33,0.84,1.37
4463.0,1.32,0.83,1.36
4465.0,1.29,0.83,1.38
4467.0,1.34,0.82,1.39
4469.0,1.41,0.87,1.39
4471.0,1.43,0.89,1.39
4473.0,1.43,0.86,1.43
4475.0,1.42,0.86,1.44
4477.0,1.42,0.88,1.44
4480.0,1.41,0.89,1.44
4482.0,1.41,0.9,1.44
4484.0,1.41,0.9,1.45
4485.0,1.41,0.89,1.46
4487.0,1.41,0.87,1.46
4489.0,1.41,0.85,1.43
4491.0,1.4,0.88,1.41
4493.0,1.39,0.91,1.42
4495.0,1.4,0.91,1.45
4497.0,1.43,0.94,1.46
4499.0,1.44,0.95,1.46
4501.0,1.44,0.98,1.44
4503.0,1.43,1.02,1.42
4505.0,1.42,1.05,1.41
4507.0,1.42,1.1,1.41
4509.0,1.42,1.14,1.42
4511.0,1.42,1.16,1.43
4513.0,1.41,1.19,1.41
4515.0,1.4,1.25,1.41
4517.0,1.39,1.25,1.39
4519.0,1.41,1.25,1.38
4521.0,1.4,1.25,1.37
4524.0,1.4,1.25,1.38
4526.0,1.42,1.21,1.38
4527.0,1.42,1.15,1.38
4529.0,1.33,1.13,1.43
4531.0,1.44,1.12,1.41
4533.0,1.45,1.06,1.41
4535.0,1.44,1.06,1.41
4537.0,1.44,1.08,1.4
4539.0,1.43,1.06,1.42
4541.0,1.43,1.08,1.41
4543.0,1.45,1.07,1.39
4545.0,1.42,1.04,1.38
4547.0,1.36,1.01,1.4
4549.0,1.44,1.02,1.43
4551.0,1.42,1.08,1.44
4553.0,1.41,1.1,1.4
4555.0,1.45,1.12,1.35
4557.0,1.44,1.11,1.36
4559.0,1.45,1.1,1.37
4561.0,1.45,1.09,1.38
4563.0,1.43,1.08,1.41
4566.0,1.49,1.08,1.43
4568.0,1.5,1.06,1.44
4570.0,1.51,1.05,1.44
4571.0,1.52,1.06,1.42
4573.0,1.53,1.06,1.44
4575.0,1.52,1.05,1.47
4577.0,1.52,1.07,1.48
4579.0,1.51,1.05,1.48
4581.0,1.48,1.04,1.51
4583.0,1.54,1.03,1.52
4585.0,1.55,1.02,1.49
4587.0,1.56,1.02,1.51
4589.0,1.55,1.03,1.55
4591.0,1.47,1.0,1.59
4593.0,1.45,1.01,1.6
4595.0,1.47,1.05,1.6
4597.0,1.47,1.1,1.61
4599.0,1.46,1.08,1.61
4601.0,1.44,1.07,1.63
4603.0,1.46,1.09,1.6
4605.0,1.46,1.09,1.55
4608.0,1.46,1.07,1.51
4610.0,1.45,1.08,1.5
4612.0,1.44,1.08,1.52
4613.0,1.43,1.12,1.53
4615.0,1.41,1.18,1.52
4617.0,1.4,1.23,1.52
4619.0,1.38,1.24,1.49
4621.0,1.42,1.26,1.45
4623.0,1.42,1.29,1.45
4625.0,1.36,1.28,1.44
4627.0,1.35,1.25,1.43
4629.0,1.45,1.26,1.45
4631.0,1.45,1.27,1.43
4633.0,1.45,1.26,1.41
4635.0,1.43,1.25,1.43
4637.0,1.47,1.25,1.42
4639.0,1.47,1.25,1.43
4641.0,1.44,1.24,1.44
4643.0,1.39,1.26,1.43
4645.0,1.4,1.29,1.4
4647.0,1.46,1.32,1.4
4649.0,1.54,1.33,1.41
4652.0,1.54,1.3,1.42
4654.0,1.52,1.3,1.45
4655.0,1.48,1.3,1.47
4657.0,1.46,1.3,1.47
4659.0,1.42,1.31,1.48
4661.0,1.48,1.3,1.49
4663.0,1.47,1.27,1.51
4665.0,1.42,1.25,1.52
4667.0,1.49,1.26,1.52
4669.0,1.48,1.31,1.51
4671.0,1.45,1.33,1.5
4673.0,1.43,1.3,1.52
4675.0,1.42,1.31,1.49
4677.0,1.44,1.32,1.48
4679.0,1.47,1.29,1.49
4681.0,1.49,1.28,1.46
4683.0,1.5,1.31,1.45
4685.0,1.45,1.29,1.46
4687.0,1.42,1.25,1.45
4689.0,1.46,1.24,1.46
4691.0,1.46,1.25,1.44
4694.0,1.38,1.29,1.45
4696.0,1.42,1.34,1.45
4698.0,1.39,1.34,1.45
4699.0,1.4,1.33,1.43
4701.0,1.42,1.34,1.43
4703.0,1.45,1.33,1.43
4705.0,1.52,1.32,1.45
4707.0,1.4,1.31,1.43
4709.0,1.38,1.29,1.41
4711.0,1.51,1.29,1.42
4713.0,1.48,1.31,1.42
4715.0,1.45,1.34,1.41
4717.0,1.43,1.36,1.38
4719.0,1.42,1.36,1.36
4721.0,1.41,1.38,1.35
4723.0,1.41,1.36,1.36
4725.0,1.4,1.34,1.36
4727.0,1.41,1.31,1.36
4729.0,1.44,1.33,1.38
4731.0,1.46,1.34,1.4
4733.0,1.42,1.37,1.43
4736.0,1.39,1.38,1.45
4738.0,1.37,1.37,1.45
4740.0,1.44,1.36,1.47
4741.0,1.46,1.35,1.48
4743.0,1.45,1.38,1.48
4745.0,1.45,1.39,1.45
4747.0,1.45,1.38,1.45
4749.0,1.46,1.36,1.44
4751.0,1.45,1.39,1.44
4753.0,1.45,1.45,1.43
4755.0,1.43,1.42,1.45
4757.0,1.42,1.37,1.45
4759.0,1.45,1.35,1.45
4761.0,1.45,1.35,1.46
4763.0,1.39,1.36,1.47
4765.0,1.41,1.36,1.46
4767.0,1.43,1.35,1.43
4769.0,1.46,1.36,1.43
4771.0,1.44,1.35,1.45
4773.0,1.44,1.41,1.46
4775.0,1.45,1.45,1.44
4777.0,1.45,1.44,1.44
4780.0,1.45,1.45,1.43
4782.0,1.47,1.48,1.44
4783.0,1.53,1.49,1.41
4785.0,1.47,1.47,1.43
4787.0,1.45,1.44,1.43
4789.0,1.45,1.41,1.43
4791.0,1.43,1.44,1.43
4793.0,1.42,1.46,1.43
4795.0,1.44,1.45,1.42
4797.0,1.42,1.44,1.39
4799.0,1.41,1.4,1.4
4801.0,1.4,1.4,1.38
4803.0,1.36,1.43,1.38
4805.0,1.35,1.42,1.38
4807.0,1.36,1.4,1.37
4809.0,1.33,1.42,1.37
4811.0,1.27,1.48,1.36
4813.0,1.35,1.59,1.37
4815.0,1.35,1.59,1.38
4817.0,1.34,1.61,1.4
4819.0,1.32,1.59,1.44
4822.0,1.33,1.59,1.44
4824.0,1.34,1.55,1.44
4826.0,1.34,1.53,1.43
4827.0,1.35,1.53,1.43
4829.0,1.37,1.5,1.44
4831.0,1.41,1.5,1.46
4833.0,1.42,1.49,1.46
4835.0,1.43,1.54,1.44
4837.0,1.43,1.54,1.43
4839.0,1.4,1.54,1.42
4841.0,1.35,1.56,1.4
4843.0,1.37,1.56,1.39
4845.0,1.36,1.57,1.37
4847.0,1.4,1.56,1.39
4849.0,1.43,1.58,1.46
4851.0,1.44,1.58,1.51
4853.0,1.42,1.61,1.52
4855.0,1.47,1.6,1.53
4857.0,1.48,1.6,1.54
4859.0,1.48,1.59,1.53
4861.0,1.45,1.58,1.51
4864.0,1.45,1.58,1.49
4866.0,1.41,1.58,1.45
4868.0,1.46,1.59,1.48
4869.0,1.47,1.59,1.5
4871.0,1.45,1.53,1.5
4873.0,1.45,1.54,1.48
4875.0,1.44,1.55,1.46
4877.0,1.44,1.55,1.5
4879.0,1.42,1.53,1.49
4881.0,1.41,1.49,1.47
4883.0,1.45,1.5,1.46
4885.0,1.52,1.44,1.46
4887.0,1.58,1.49,1.46
4889.0,1.53,1.53,1.46
4891.0,1.53,1.52,1.44
4893.0,1.52,1.47,1.46
4895.0,1.51,1.45,1.47
4897.0,1.5,1.43,1.48
4899.0,1.47,1.43,1.5
4901.0,1.45,1.43,1.48
4903.0,1.47,1.39,1.46
4905.0,1.52,1.35,1.42
4908.0,1.52,1.36,1.41
4910.0,1.51,1.34,1.43
4911.0,1.5,1.31,1.45
4913.0,1.55,1.29,1.46
4915.0,1.59,1.29,1.45
4917.0,1.54,1.27,1.45
4919.0,1.57,1.27,1.44
4921.0,1.57,1.27,1.43
4923.0,1.54,1.25,1.42
4925.0,1.53,1.23,1.41
4927.0,1.51,1.26,1.4
4929.0,1.5,1.26,1.41
4931.0,1.48,1.32,1.42
4933.0,1.36,1.34,1.42
4935.0,1.28,1.35,1.4
4937.0,1.49,1.38,1.42
4939.0,1.53,1.37,1.41
4941.0,1.49,1.35,1.44
4943.0,1.46,1.31,1.45
4945.0,1.5,1.3,1.46
4947.0,1.33,1.31,1.45
4950.0,1.35,1.3,1.42
4952.0,1.37,1.33,1.43
4954.0,1.57,1.36,1.42
4955.0,1.57,1.33,1.41
4957.0,1.52,1.36,1.37
4959.0,1.5,1.33,1.35
4961.0,1.48,1.34,1.34
4963.0,1.4,1.38,1.35
4965.0,1.39,1.38,1.38
4967.0,1.46,1.37,1.4
4969.0,1.47,1.39,1.43
4971.0,1.45,1.42,1.44
4973.0,1.44,1.45,1.44
4975.0,1.52,1.45,1.42
4977.0,1.5,1.41,1.4
4979.0,1.46,1.45,1.38
4981.0,1.47,1.45,1.34
4983.0,1.45,1.4,1.35
4985.0,1.33,1.42,1.37
4987.0,1.25,1.4,1.39
4989.0,1.43,1.46,1.42
4992.0,1.54,1.45,1.45
4994.0,1.55,1.44,1.45
4996.0,1.49,1.44,1.46
4997.0,1.45,1.43,1.43
4999.0,1.35,1.42,1.42
5001.0,1.16,1.4,1.43
5003.0,1.3,1.42,1.45
5005.0,1.34,1.44,1.44
5007.0,1.33,1.45,1.44
5009.0,1.3,1.45,1.45
5011.0,1.06,1.47,1.45
5013.0,1.22,1.47,1.43
5015.0,1.54,1.43,1.39
5017.0,1.48,1.42,1.41
5019.0,1.41,1.41,1.42
5021.0,1.41,1.34,1.43
5023.0,1.41,1.29,1.43
5025.0,1.4,1.31,1.43
5027.0,1.36,1.32,1.45
5029.0,1.37,1.38,1.45
5031.0,1.29,1.45,1.45
5033.0,1.26,1.49,1.47
5036.0,1.42,1.49,1.48
5038.0,1.45,1.43,1.46
5039.0,1.42,1.34,1.45
5041.0,1.43,1.35,1.45
5043.0,1.41,1.36,1.44
5045.0,1.25,1.4,1.44
5047.0,1.17,1.38,1.44
5049.0,1.28,1.38,1.45
5051.0,1.46,1.37,1.46
5053.0,1.22,1.37,1.47
5055.0,1.16,1.39,1.46
5057.0,1.23,1.39,1.44
5059.0,1.55,1.38,1.41
5061.0,1.64,1.4,1.39
5063.0,1.7,1.44,1.39
5065.0,1.63,1.46,1.4
5067.0,1.63,1.45,1.41
5069.0,1.58,1.45,1.4
5071.0,1.52,1.45,1.4
5073.0,1.57,1.45,1.41
5075.0,1.57,1.48,1.4
5078.0,1.55,1.47,1.39
5080.0,1.52,1.44,1.4
5082.0,1.5,1.41,1.41
5083.0,1.48,1.4,1.4
5085.0,1.56,1.38,1.4
5087.0,1.5,1.41,1.39
5089.0,1.45,1.43,1.43
5091.0,1.45,1.45,1.45
5093.0,1.58,1.43,1.46
5095.0,1.48,1.43,1.47
5097.0,1.54,1.42,1.49
5099.0,1.55,1.4,1.48
5101.0,1.55,1.34,1.48
5103.0,1.54,1.31,1.47
5105.0,1.4,1.38,1.46
5107.0,1.4,1.38,1.46
5109.0,1.5,1.37,1.48
5111.0,1.47,1.39,1.51
5113.0,1.4,1.41,1.49
5115.0,1.3,1.46,1.45
5117.0,1.14,1.49,1.42
5120.0,1.21,1.44,1.4
5122.0,1.52,1.42,1.4
5124.0,1.47,1.4,1.42
5125.0,1.58,1.39,1.43
5127.0,1.49,1.33,1.44
5129.0,1.35,1.34,1.45
5131.0,1.26,1.38,1.42
5133.0,1.54,1.38,1.42
5135.0,1.25,1.42,1.43
5137.0,1.62,1.45,1.45
5139.0,1.83,1.37,1.46
5141.0,1.8,1.39,1.47
5143.0,1.76,1.46,1.45
5145.0,1.67,1.49,1.46
5147.0,1.61,1.5,1.49
5149.0,1.64,1.5,1.53
5151.0,1.57,1.49,1.56
5153.0,1.48,1.48,1.59
5155.0,1.66,1.53,1.59
5157.0,1.65,1.51,1.59
5159.0,1.64,1.56,1.57
5161.0,1.59,1.54,1.55
5164.0,1.63,1.48,1.57
5166.0,1.78,1.52,1.59
5167.0,1.83,1.52,1.61
5169.0,1.67,1.48,1.61
5171.0,1.72,1.52,1.64
5173.0,1.88,1.57,1.73
5175.0,1.81,1.57,1.75
5177.0,1.89,1.53,1.74
5179.0,1.9,1.58,1.75
5181.0,1.92,1.61,1.76
5183.0,1.93,1.61,1.78
5185.0,1.95,1.61,1.75
5187.0,2.01,1.62,1.75
5189.0,1.93,1.59,1.75
5191.0,1.89,1.53,1.73
5193.0,1.7,1.57,1.71
5195.0,1.86,1.56,1.68
5197.0,2.17,1.57,1.64
5199.0,2.03,1.51,1.62
5201.0,1.96,1.45,1.58
5203.0,1.83,1.46,1.54
5206.0,2.3,1.45,1.5
5208.0,2.37,1.46,1.5
5210.0,2.41,1.46,1.51
5211.0,2.35,1.52,1.52
5213.0,2.2,1.47,1.54
5215.0,1.97,1.54,1.53
5217.0,1.98,1.55,1.55
5219.0,2.06,1.6,1.55
5221.0,1.92,1.6,1.55
5223.0,1.9,1.58,1.52
5225.0,1.95,1.57,1.5
5227.0,1.86,1.62,1.51
5229.0,1.74,1.55,1.52
5231.0,1.69,1.75,1.54
5233.0,1.47,1.79,1.54
5235.0,1.56,1.75,1.54
5237.0,1.45,1.81,1.54
5239.0,1.27,1.81,1.52
5241.0,1.32,1.76,1.48
5243.0,1.61,1.71,1.47
5245.0,1.8,1.68,1.46
5248.0,1.5,1.65,1.46
5250.0,1.34,1.7,1.47
5252.0,1.51,1.65,1.5
5253.0,1.44,1.65,1.54
5255.0,1.08,1.61,1.54
5257.0,1.23,1.59,1.48
5259.0,1.22,1.62,1.45
5261.0,1.1,1.57,1.44
5263.0,0.77,1.42,1.44
5265.0,0.88,1.48,1.41
5267.0,1.19,1.53,1.4
5269.0,0.96,1.46,1.4
5271.0,0.85,1.45,1.39
5273.0,1.05,1.5,1.38
5275.0,1.41,1.59,1.38
5277.0,1.5,1.34,1.4
5279.0,1.43,1.33,1.43
5281.0,1.48,1.38,1.41
5283.0,1.37,1.4,1.44
5285.0,1.05,1.42,1.44
5287.0,1.66,1.35,1.42
5289.0,1.78,1.31,1.42
5292.0,1.55,1.52,1.4
5294.0,1.55,1.61,1.41
5296.0,1.71,1.56,1.41
5297.0,1.69,1.45,1.37
5299.0,1.46,1.25,1.34
5301.0,1.51,1.35,1.35
5303.0,1.56,1.45,1.37
5305.0,1.53,1.4,1.36
5307.0,1.5,1.32,1.37
5309.0,1.18,1.14,1.39
5311.0,1.17,1.03,1.42
5313.0,1.97,1.05,1.43
5315.0,1.86,0.97,1.47
5317.0,1.7,0.98,1.48
5319.0,1.68,0.99,1.48
5321.0,1.76,1.31,1.47
5323.0,1.73,1.3,1.44
5325.0,1.6,1.34,1.41
5327.0,1.47,1.05,1.4
5329.0,1.21,0.6,1.44
5331.0,1.09,0.46,1.46
5334.0,1.13,0.37,1.42
5336.0,1.37,0.18,1.41
5338.0,1.22,0.01,1.42
5339.0,0.93,0.0,1.45
5341.0,0.74,0.0,1.46
5343.0,0.78,0.0,1.45
5345.0,0.96,0.0,1.45
5347.0,0.98,0.0,1.43
5349.0,0.98,0.0,1.4
5351.0,1.01,0.0,1.44
5353.0,0.95,0.0,1.43
5355.0,1.21,0.0,1.39
5357.0,1.21,0.0,1.33
5359.0,1.03,0.0,1.27
5361.0,1.22,0.0,1.25
5363.0,1.36,0.0,1.23
5365.0,1.15,0.0,1.22
5367.0,0.95,0.0,1.2
5369.0,1.15,0.0,1.21
5371.0,1.23,0.0,1.22
5373.0,1.13,0.0,1.25
5376.0,1.04,0.0,1.26
5378.0,1.2,0.0,1.25
5380.0,1.2,0.0,1.27
5381.0,1.2,0.0,1.33
5383.0,1.2,0.0,1.35
5385.0,1.25,0.0,1.31
5387.0,1.26,0.0,1.29
5389.0,1.79,0.0,1.28
5391.0,2.19,0.0,1.3
5393.0,2.41,0.0,1.32
5395.0,2.57,0.0,1.32
5397.0,2.66,0.0,1.31
5399.0,2.65,0.0,1.32
5401.0,2.64,0.0,1.33
5403.0,2.74,0.0,1.32
5405.0,2.7,0.0,1.31
5407.0,2.64,0.0,1.31
5409.0,2.6,0.0,1.33
5411.0,2.57,0.0,1.34
5413.0,2.51,0.0,1.37
5415.0,2.52,0.0,1.39
5417.0,2.48,0.0,1.4
5420.0,2.38,0.0,1.39
5422.0,2.32,0.0,1.4
5424.0,2.23,0.0,1.4
5425.0,2.18,0.0,1.4
5427.0,2.34,0.0,1.42
5429.0,1.98,0.0,1.44
5431.0,2.18,0.0,1.45
5433.0,2.08,0.0,1.47
5435.0,1.87,0.09,1.46
5437.0,1.66,0.0,1.41
5439.0,1.4,0.0,1.42
5441.0,1.43,0.0,1.44
5443.0,1.63,0.0,1.45
5445.0,1.76,0.0,1.47
5447.0,1.57,0.0,1.49
5449.0,1.51,0.0,1.5
5451.0,1.49,0.0,1.55
5453.0,1.16,0.0,1.56
5455.0,1.34,0.0,1.54
5457.0,1.52,0.0,1.54
5459.0,0.97,0.08,1.55
5462.0,0.84,0.18,1.52
5464.0,1.18,0.25,1.57
5466.0,1.03,0.22,1.57
5467.0,1.33,0.22,1.57
5469.0,1.41,0.44,1.52
5471.0,1.38,0.46,1.51
5473.0,1.2,0.47,1.53
5475.0,1.23,0.62,1.5
5477.0,1.19,0.57,1.48
5479.0,1.25,0.47,1.46
5481.0,1.21,0.63,1.46
5483.0,1.2,0.53,1.48
5485.0,1.24,0.51,1.49
5487.0,1.02,0.62,1.49
5489.0,0.93,0.62,1.49
5491.0,0.93,0.6,1.5
5493.0,0.95,0.6,1.51
5495.0,0.9,0.51,1.54
5497.0,0.67,0.56,1.51
5499.0,0.65,0.6,1.51
5501.0,0.67,0.55,1.5
5504.0,0.62,0.56,1.49
5506.0,0.54,0.75,1.49
5508.0,0.77,0.77,1.54
5509.0,0.84,0.4,1.55
5511.0,0.97,0.47,1.56
5513.0,1.13,0.94,1.6
5515.0,1.25,0.92,1.59
5517.0,1.23,1.32,1.58
5519.0,0.95,1.32,1.56
5521.0,0.79,1.71,1.53
5523.0,0.66,2.03,1.51
5525.0,0.92,2.38,1.49
5527.0,0.95,2.47,1.47
5529.0,0.95,2.58,1.45
5531.0,1.07,2.53,1.48
5533.0,0.94,2.43,1.5
5535.0,0.85,2.31,1.5
5537.0,0.85,2.04,1.54
5539.0,0.77,1.93,1.54
5541.0,0.87,1.29,1.54
5543.0,0.91,0.85,1.53
5545.0,0.95,0.49,1.51
5548.0,0.87,0.09,1.52
5550.0,0.9,0.0,1.57
5552.0,0.95,0.0,1.63
5553.0,0.91,0.0,1.62
5555.0,0.74,0.0,1.64
5557.0,0.56,0.11,1.65
5559.0,0.24,0.36,1.62
5561.0,0.31,0.65,1.62
5563.0,0.35,0.85,1.63
5565.0,0.01,1.01,1.63
5567.0,0.0,1.28,1.59
5569.0,0.0,1.45,1.57
5571.0,0.0,1.34,1.57
5573.0,0.0,1.09,1.59
5575.0,0.0,0.99,1.59
5577.0,0.0,1.04,1.57
5579.0,0.0,1.2,1.56
5581.0,0.0,1.05,1.58
5583.0,0.0,1.15,1.57
5585.0,0.0,1.16,1.54
5587.0,0.0,1.14,1.54
5590.0,0.0,1.3,1.54
5592.0,0.0,1.42,1.56
5594.0,0.0,1.78,1.59
5595.0,0.0,2.0,1.59
5597.0,0.0,2.05,1.59
5599.0,0.0,2.27,1.59
5601.0,0.0,1.88,1.57
5603.0,0.0,1.81,1.54
5605.0,0.0,1.67,1.51
5607.0,0.0,1.66,1.51
5609.0,0.0,1.63,1.56
5611.0,0.12,1.64,1.61
5613.0,0.11,1.72,1.63
5615.0,0.03,1.81,1.64
5617.0,0.0,1.97,1.66
5619.0,0.0,2.05,1.65
5621.0,0.0,2.19,1.61
5623.0,0.0,2.33,1.56
5625.0,0.0,2.46,1.59
5627.0,0.0,2.55,1.62
5629.0,0.0,2.74,1.61
5632.0,0.0,2.75,1.62
5634.0,0.0,2.79,1.63
5636.0,0.0,2.72,1.61
5637.0,0.0,2.75,1.56
5639.0,0.0,2.56,1.53
5641.0,0.0,2.46,1.53
5643.0,0.0,2.42,1.55
5645.0,0.24,2.38,1.54
5647.0,0.89,2.38,1.5
5649.0,1.21,2.49,1.47
5651.0,1.29,2.7,1.48
5653.0,1.96,3.05,1.45
5655.0,2.23,3.07,1.43
5657.0,2.02,3.06,1.41
5659.0,1.76,3.2,1.38
5661.0,1.87,3.3,1.38
5663.0,1.93,3.3,1.37
5665.0,2.24,3.3,1.35
5667.0,2.64,3.3,1.33
5669.0,2.84,3.3,1.3
5671.0,2.72,3.3,1.29
5673.0,2.33,3.3,1.27
5676.0,1.59,3.3,1.28
5678.0,1.4,3.3,1.25
5680.0,1.44,3.3,1.26
5681.0,1.58,3.3,1.25
5683.0,1.81,3.29,1.24
5685.0,1.81,3.16,1.23
5687.0,1.93,3.29,1.27
5689.0,1.99,3.25,1.29
5691.0,2.01,3.26,1.31
5693.0,1.98,3.3,1.31
5695.0,1.99,3.3,1.31
5697.0,2.17,3.3,1.31
5699.0,2.39,3.29,1.32
5701.0,2.5,3.16,1.31
5703.0,2.64,3.19,1.33
5705.0,3.06,3.18,1.34
5707.0,3.15,3.25,1.37
5709.0,3.07,3.15,1.44
5711.0,2.99,2.93,1.51
5713.0,2.9,3.05,1.55
5715.0,2.87,2.88,1.58
5718.0,2.87,2.96,1.59
5720.0,2.5,3.24,1.6
5722.0,2.23,3.15,1.58
5723.0,2.19,3.17,1.57
5725.0,2.13,3.3,1.54
5727.0,1.91,3.3,1.51
5729.0,1.93,3.3,1.54
5731.0,1.76,3.3,1.55
5733.0,1.45,3.3,1.52
5735.0,0.72,3.3,1.5
5737.0,0.2,3.3,1.51
5739.0,0.0,3.3,1.46
5741.0,0.0,3.3,1.4
5743.0,0.0,3.3,1.34
5745.0,0.0,3.3,1.31
5747.0,0.0,3.3,1.29
5749.0,0.0,3.3,1.29
5751.0,0.0,3.3,1.34
5753.0,0.0,3.3,1.34
5755.0,0.0,3.3,1.32
5757.0,0.0,3.25,1.36
5760.0,0.0,2.98,1.42
5762.0,0.0,3.3,1.41
5764.0,0.0,3.3,1.38
5765.0,0.0,3.3,1.38
5767.0,0.0,3.3,1.37
5769.0,0.0,3.3,1.38
5771.0,0.0,3.3,1.43
5773.0,0.0,3.3,1.44
5775.0,0.0,3.3,1.41
5777.0,0.0,3.3,1.4
5779.0,0.0,3.3,1.39
5781.0,0.0,3.3,1.39
5783.0,0.0,3.3,1.36
5785.0,0.0,3.3,1.37
5787.0,0.0,3.3,1.4
5789.0,0.0,3.3,1.43
5791.0,0.0,3.3,1.45
5793.0,0.0,3.3,1.41
5795.0,0.0,3.3,1.43
5797.0,0.0,3.3,1.41
5799.0,0.0,3.3,1.41
5801.0,0.0,3.3,1.39
5804.0,0.0,3.3,1.41
5806.0,0.0,3.3,1.4
5808.0,0.0,3.28,1.38
5809.0,0.0,3.17,1.38
5811.0,0.0,2.84,1.44
5813.0,0.0,2.83,1.44
5815.0,0.0,2.81,1.41
5817.0,0.0,2.75,1.38
5819.0,0.0,2.55,1.38
5821.0,0.0,2.36,1.37
5823.0,0.0,2.26,1.41
5825.0,0.0,2.2,1.43
5827.0,0.0,2.33,1.39
5829.0,0.0,2.15,1.31
5831.0,0.0,2.07,1.29
5833.0,0.06,2.12,1.31
5835.0,0.25,2.08,1.29
5837.0,0.29,2.14,1.28
5839.0,0.3,1.98,1.32
5841.0,0.39,1.78,1.3
5843.0,0.49,1.83,1.24
5846.0,0.64,1.88,1.21
5848.0,0.81,1.92,1.19
5850.0,1.0,1.95,1.19
5851.0,1.05,1.81,1.19
5853.0,1.16,1.55,1.21
5855.0,1.17,1.32,1.25
5857.0,1.12,1.18,1.27
5859.0,1.41,1.18,1.3
5861.0,1.5,1.09,1.32
5863.0,1.56,0.93,1.33
5865.0,1.64,0.85,1.32
5867.0,1.71,0.86,1.34
5869.0,1.8,0.98,1.35
5871.0,1.9,1.11,1.32
5873.0,1.98,1.19,1.3
5875.0,2.0,1.15,1.3
5877.0,2.01,1.22,1.25
5879.0,2.0,1.25,1.26
5881.0,1.98,1.22,1.29
5883.0,1.98,1.27,1.27
5885.0,2.01,1.28,1.28
5888.0,2.02,1.31,1.39
5890.0,2.0,1.4,1.46
5892.0,2.05,1.37,1.5
5893.0,2.11,1.39,1.48
5895.0,2.17,1.44,1.4
5897.0,2.27,1.34,1.38
5899.0,2.23,1.25,1.36
5901.0,2.25,1.14,1.31
5903.0,2.34,1.08,1.29
5905.0,2.38,1.14,1.26
5907.0,2.42,1.11,1.22
5909.0,2.42,1.13,1.19
5911.0,2.52,1.22,1.17
5913.0,2.55,1.33,1.15
5915.0,2.56,1.33,1.15
5917.0,2.64,1.35,1.18
5919.0,2.72,1.35,1.21
5921.0,2.74,1.21,1.2
5923.0,2.77,1.03,1.19
5925.0,2.69,0.99,1.18
5927.0,2.79,1.05,1.19
5929.0,2.85,0.91,1.22
5932.0,2.8,0.94,1.25
5934.0,2.78,0.94,1.28
5936.0,2.81,0.91,1.27
5937.0,2.83,0.92,1.27
5939.0,2.85,0.94,1.28
5941.0,2.85,1.03,1.27
5943.0,2.9,1.1,1.25
5945.0,2.88,0.97,1.21
5947.0,2.84,0.97,1.25
5949.0,2.81,1.02,1.29
5951.0,2.77,1.05,1.29
5953.0,2.76,1.09,1.24
5955.0,2.68,1.07,1.21
5957.0,2.61,1.05,1.22
5959.0,2.56,0.96,1.23
5961.0,2.56,0.97,1.25
5963.0,2.59,1.01,1.24
5965.0,2.58,1.04,1.26
5967.0,2.55,1.01,1.27
5969.0,2.51,0.97,1.3
5971.0,2.45,0.99,1.31
5974.0,2.47,0.96,1.31
5976.0,2.41,0.92,1.33
5978.0,2.29,0.99,1.3
5979.0,2.23,1.05,1.31
5981.0,2.26,1.06,1.33
5983.0,2.21,0.99,1.34
5985.0,2.18,1.02,1.36
5987.0,2.35,1.09,1.37
5989.0,2.36,1.09,1.37
5991.0,2.34,1.15,1.39
5993.0,2.32,1.17,1.38
5995.0,2.29,1.13,1.26
5997.0,2.24,1.03,1.21
5999.0,2.23,0.92,1.2
6001.0,2.13,0.9,1.18
6003.0,2.1,0.86,1.19
6005.0,2.22,0.72,1.18
6007.0,2.23,0.78,1.16
6009.0,2.37,0.86,1.18
6011.0,2.35,0.91,1.2
6013.0,2.26,0.96,1.23
6016.0,2.11,0.93,1.23
6018.0,2.07,0.86,1.19
6020.0,2.1,0.93,1.17
6021.0,2.08,1.09,1.17
6023.0,2.13,1.22,1.16
6025.0,2.15,1.29,1.2
6027.0,2.13,1.36,1.25
6029.0,2.09,1.38,1.27
6031.0,2.04,1.22,1.27
6033.0,1.99,1.17,1.26
6035.0,1.98,1.22,1.25
6037.0,1.97,1.22,1.26
6039.0,1.97,1.28,1.27
6041.0,1.92,1.37,1.27
6043.0,1.9,1.43,1.28
6045.0,1.93,1.47,1.28
6047.0,1.93,1.56,1.31
6049.0,1.97,1.63,1.38
6051.0,1.94,1.69,1.42
6053.0,1.89,1.66,1.41
6055.0,1.83,1.66,1.41
6057.0,1.75,1.62,1.43
6060.0,1.74,1.67,1.48
6062.0,2.0,1.77,1.5
6064.0,2.03,1.82,1.51
6065.0,2.02,1.86,1.53
6067.0,2.1,1.86,1.55
6069.0,2.11,1.89,1.55
6071.0,2.1,1.85,1.58
6073.0,2.04,1.79,1.59
6075.0,1.95,1.78,1.59
6077.0,1.9,1.75,1.62
6079.0,1.85,1.71,1.65
6081.0,1.82,1.68,1.65
6083.0,1.77,1.63,1.64
6085.0,1.85,1.54,1.63
6087.0,1.91,1.51,1.64
6089.0,1.88,1.48,1.64
6091.0,1.78,1.39,1.62
6093.0,1.83,1.29,1.61
6095.0,1.83,1.24,1.6
6097.0,1.8,1.28,1.58
6099.0,1.82,1.29,1.55
6102.0,1.92,1.3,1.54
6104.0,1.91,1.29,1.5
6106.0,1.91,1.33,1.48
6107.0,1.94,1.41,1.48
6109.0,1.95,1.48,1.5
6111.0,1.95,1.31,1.55
6113.0,1.92,1.28,1.57
6115.0,1.8,1.36,1.55
6117.0,1.97,1.38,1.55
6119.0,1.96,1.39,1.54
6121.0,1.87,1.41,1.52
6123.0,1.82,1.32,1.51
6125.0,1.84,1.29,1.53
6127.0,1.9,1.26,1.55
6129.0,1.85,1.3,1.55
6131.0,1.73,1.3,1.54
6133.0,1.79,1.27,1.54
6135.0,1.81,1.27,1.55
6137.0,1.71,1.26,1.54
6139.0,1.64,1.3,1.52
6141.0,1.69,1.35,1.51
6144.0,1.66,1.42,1.52
6146.0,1.59,1.46,1.53
6148.0,1.56,1.49,1.53
6149.0,1.52,1.48,1.54
6151.0,1.51,1.53,1.53
6153.0,1.61,1.54,1.5
6155.0,1.75,1.57,1.5
6157.0,1.74,1.54,1.51
6159.0,1.54,1.46,1.5
6161.0,1.6,1.35,1.51
6163.0,1.74,1.23,1.49
6165.0,1.64,1.17,1.49
6167.0,1.58,1.07,1.5
6169.0,1.71,1.04,1.51
6171.0,1.75,1.09,1.55
6173.0,1.69,1.12,1.55
6175.0,1.59,1.14,1.56
6177.0,1.68,1.15,1.54
6179.0,1.68,1.18,1.49
6181.0,1.63,1.25,1.49
6183.0,1.61,1.25,1.49
6185.0,1.57,1.26,1.47
6188.0,1.54,1.32,1.45
6190.0,1.59,1.35,1.49
6192.0,1.66,1.39,1.52
6193.0,1.66,1.38,1.51
6195.0,1.64,1.37,1.51
6197.0,1.6,1.44,1.5
6199.0,1.56,1.43,1.49
6201.0,1.53,1.47,1.48
6203.0,1.52,1.44,1.47
6205.0,1.54,1.47,1.48
6207.0,1.6,1.5,1.47
6209.0,1.66,1.5,1.48
6211.0,1.56,1.42,1.53
6213.0,1.44,1.28,1.52
6215.0,1.47,1.25,1.49
6217.0,1.57,1.2,1.47
6219.0,1.57,1.06,1.49
6221.0,1.54,1.02,1.51
6223.0,1.5,1.02,1.48
6225.0,1.46,1.05,1.47
6227.0,1.45,1.1,1.48
6230.0,1.41,1.12,1.49
6232.0,1.51,1.16,1.5
6234.0,1.52,1.18,1.5
6235.0,1.46,1.05,1.48
6237.0,1.39,1.02,1.46
6239.0,1.36,1.06,1.41
6241.0,1.44,1.13,1.39
6243.0,1.5,1.14,1.39
6245.0,1.5,1.05,1.4
6247.0,1.46,1.09,1.43
6249.0,1.48,1.12,1.45
6251.0,1.41,1.11,1.46
6253.0,1.49,1.0,1.47
6255.0,1.5,0.99,1.45
6257.0,1.54,1.03,1.46
6259.0,1.55,1.05,1.44
6261.0,1.63,1.01,1.41
6263.0,1.64,1.01,1.42
6265.0,1.51,1.08,1.46
6267.0,1.6,1.12,1.5
6269.0,1.77,1.02,1.51
6272.0,1.81,0.93,1.5
6274.0,1.82,0.94,1.48
6276.0,1.93,0.97,1.45
6277.0,2.14,1.04,1.43
6279.0,2.39,1.13,1.43
6281.0,2.44,1.1,1.39
6283.0,2.41,1.18,1.39
6285.0,2.51,1.19,1.4
6287.0,2.55,1.23,1.43
6289.0,2.55,1.32,1.46
6291.0,2.55,1.33,1.49
6293.0,2.57,1.35,1.53
6295.0,2.49,1.36,1.53
6297.0,2.46,1.44,1.5
6299.0,2.4,1.53,1.45
6301.0,2.43,1.58,1.45
6303.0,2.48,1.59,1.46
6305.0,2.49,1.56,1.45
6307.0,2.43,1.57,1.45
6309.0,2.28,1.57,1.44
6311.0,2.14,1.65,1.46
6313.0,2.33,1.67,1.44
6316.0,2.31,1.76,1.42
6318.0,2.16,1.88,1.4
6320.0,2.18,1.88,1.41
6321.0,2.04,1.88,1.4
6323.0,1.82,1.83,1.38
6325.0,2.01,1.8,1.36
6327.0,2.02,1.8,1.38
6329.0,1.93,1.76,1.38
6331.0,1.85,1.76,1.39
6333.0,1.79,1.73,1.42
6335.0,1.69,1.73,1.42
6337.0,1.61,1.74,1.38
6339.0,1.55,1.77,1.39
6341.0,1.47,1.75,1.38
6343.0,1.47,1.72,1.37
6345.0,1.46,1.69,1.36
6347.0,1.4,1.71,1.38
6349.0,1.4,1.72,1.4
6351.0,1.4,1.69,1.4
6353.0,1.41,1.63,1.36
6355.0,1.33,1.6,1.36
6358.0,1.19,1.51,1.36
6360.0,1.22,1.44,1.37
6362.0,1.32,1.43,1.37
6363.0,1.3,1.43,1.35
6365.0,1.2,1.33,1.34
6367.0,1.11,1.27,1.33
6369.0,1.14,1.22,1.32
6371.0,1.26,1.31,1.33
6373.0,1.29,1.35,1.35
6375.0,1.2,1.35,1.36
6377.0,1.15,1.35,1.36
6379.0,1.09,1.37,1.36
6381.0,1.13,1.37,1.35
6383.0,1.14,1.39,1.35
6385.0,1.13,1.37,1.37
6387.0,1.08,1.4,1.38
6389.0,1.08,1.44,1.41
6391.0,1.2,1.45,1.42
6393.0,1.2,1.51,1.4
6395.0,1.16,1.68,1.4
6397.0,1.14,1.74,1.4
6400.0,1.17,1.74,1.39
6402.0,1.1,1.7,1.38
6404.0,1.14,1.7,1.38
6406.0,1.14,1.7,1.39
6407.0,1.1,1.7,1.42
6409.0,0.98,1.68,1.42
6411.0,0.69,1.68,1.44
6413.0,0.35,1.71,1.44
6415.0,0.09,1.68,1.44
6417.0,0.0,1.68,1.47
6419.0,0.0,1.63,1.46
6421.0,0.0,1.61,1.45
6423.0,0.0,1.61,1.45
6425.0,0.0,1.57,1.43
6427.0,0.0,1.57,1.44
6429.0,0.0,1.55,1.58
6431.0,0.0,1.55,1.71
6433.0,0.0,1.55,1.74
6435.0,0.1,1.55,1.72
6437.0,0.22,1.56,1.67
6439.0,0.29,1.53,1.56
6441.0,0.38,1.48,1.51
6444.0,0.57,1.48,1.48
6446.0,0.72,1.5,1.46
6448.0,0.46,1.48,1.43
6449.0,0.35,1.52,1.45
6451.0,0.26,1.58,1.48
6453.0,0.13,1.56,1.48
6455.0,0.05,1.55,1.46
6457.0,0.0,1.5,1.44
6459.0,0.0,1.5,1.42
6461.0,0.0,1.5,1.43
6463.0,0.0,1.48,1.41
6465.0,0.0,1.48,1.42
6467.0,0.0,1.49,1.44
6469.0,0.01,1.54,1.46
6471.0,0.0,1.55,1.47
6473.0,0.06,1.57,1.48
6475.0,0.11,1.63,1.44
6477.0,0.16,1.64,1.43
6479.0,0.26,1.63,1.44
6481.0,0.26,1.63,1.4
6483.0,0.31,1.66,1.42
6486.0,0.47,1.62,1.47
6488.0,0.52,1.6,1.51
6490.0,0.62,1.56,1.5
6491.0,0.69,1.56,1.49
6493.0,0.73,1.56,1.48
6495.0,0.83,1.58,1.46
6497.0,0.96,1.61,1.45
6499.0,1.05,1.62,1.43
6501.0,1.03,1.56,1.42
6503.0,1.09,1.55,1.44
6505.0,1.31,1.52,1.45
6507.0,1.39,1.55,1.44
6509.0,1.46,1.56,1.46
6511.0,1.58,1.56,1.47
6513.0,1.72,1.58,1.46
6515.0,1.84,1.56,1.47
6517.0,1.95,1.54,1.48
6519.0,1.98,1.53,1.48
6521.0,2.02,1.54,1.45
6523.0,2.03,1.53,1.42
6525.0,1.93,1.52,1.43
6528.0,2.02,1.45,1.45
6530.0,1.93,1.45,1.45
6532.0,1.83,1.44,1.46
6534.0,1.74,1.41,1.49
6535.0,1.65,1.43,1.47
6537.0,1.61,1.44,1.46
6539.0,1.73,1.47,1.46
6541.0,1.75,1.44,1.45
6543.0,1.65,1.38,1.45
6545.0,1.53,1.45,1.45
6547.0,1.53,1.43,1.44
6549.0,1.48,1.47,1.43
6551.0,1.48,1.53,1.43
6553.0,1.52,1.56,1.45
6555.0,1.54,1.59,1.47
6557.0,1.48,1.57,1.52
6559.0,1.3,1.58,1.54
6561.0,1.53,1.52,1.57
6563.0,1.7,1.52,1.59
6565.0,1.59,1.52,1.58
6567.0,1.71,1.52,1.58
6569.0,1.7,1.58,1.57
6572.0,1.79,1.58,1.56
6574.0,1.79,1.61,1.54
6576.0,1.73,1.54,1.51
6577.0,1.71,1.5,1.47
6579.0,1.84,1.47,1.46
6581.0,1.92,1.45,1.48
6583.0,1.86,1.45,1.44
6585.0,1.86,1.45,1.43
6587.0,1.85,1.49,1.45
6589.0,1.86,1.53,1.46
6591.0,1.85,1.51,1.47
6593.0,1.84,1.52,1.48
6595.0,1.78,1.51,1.5
6597.0,1.76,1.48,1.47
6599.0,1.68,1.47,1.46
6601.0,1.65,1.45,1.45
6603.0,1.74,1.46,1.45
6605.0,1.81,1.5,1.46
6607.0,1.77,1.5,1.45
6609.0,1.83,1.53,1.45
6611.0,1.95,1.57,1.43
6614.0,1.94,1.56,1.38
6616.0,1.89,1.5,1.39
6618.0,1.85,1.57,1.4
6619.0,1.81,1.61,1.41
6621.0,1.81,1.61,1.4
6623.0,1.83,1.6,1.4
6625.0,1.89,1.62,1.42
6627.0,1.85,1.61,1.45
6629.0,1.81,1.58,1.45
6631.0,1.85,1.55,1.46
6633.0,1.8,1.52,1.46
6635.0,1.8,1.48,1.43
6637.0,1.78,1.45,1.42
6639.0,1.8,1.44,1.41
6641.0,1.88,1.43,1.4
6643.0,1.9,1.42,1.38
6645.0,1.88,1.49,1.39
6647.0,1.9,1.51,1.4
6649.0,1.86,1.53,1.41
6651.0,1.78,1.55,1.42
6653.0,1.85,1.53,1.43
6656.0,1.98,1.48,1.41
6658.0,1.9,1.51,1.43
6660.0,1.86,1.53,1.44
6662.0,1.87,1.57,1.42
6663.0,1.92,1.64,1.41
6665.0,1.9,1.65,1.42
6667.0,1.89,1.71,1.43
6669.0,1.91,1.74,1.46
6671.0,1.9,1.71,1.44
6673.0,1.88,1.67,1.44
6675.0,1.84,1.61,1.44
6677.0,1.87,1.59,1.46
6679.0,1.76,1.49,1.45
6681.0,1.87,1.48,1.44
6683.0,2.0,1.45,1.45
6685.0,1.86,1.42,1.48
6687.0,1.84,1.42,1.54
6689.0,1.92,1.43,1.56
6691.0,1.89,1.42,1.54
6693.0,1.78,1.4,1.5
6695.0,1.66,1.37,1.46
6697.0,1.75,1.36,1.46
6700.0,1.79,1.33,1.45
6702.0,1.77,1.32,1.43
6704.0,1.71,1.27,1.41
6705.0,1.62,1.31,1.42
6707.0,1.54,1.34,1.41
6709.0,1.62,1.35,1.42
6711.0,1.52,1.33,1.43
6713.0,1.46,1.14,1.42
6715.0,1.46,1.09,1.42
6717.0,1.33,1.0,1.41
6719.0,1.34,1.03,1.4
6721.0,1.41,1.09,1.37
6723.0,1.38,1.1,1.36
6725.0,1.3,1.16,1.39
6727.0,1.35,1.22,1.41
6729.0,1.45,1.25,1.43
6731.0,1.47,1.24,1.45
6733.0,1.42,1.29,1.45
6735.0,1.4,1.28,1.43
6737.0,1.39,1.28,1.41
6739.0,1.35,1.3,1.43
6742.0,1.3,1.35,1.48
6744.0,1.24,1.47,1.47
6746.0,1.28,1.56,1.48
6747.0,1.19,1.59,1.48
6749.0,1.02,1.63,1.48
6751.0,0.85,1.62,1.46
6753.0,0.75,1.6,1.45
6755.0,0.68,1.58,1.42
6757.0,0.63,1.52,1.4
6759.0,0.61,1.44,1.39
6761.0,0.65,1.4,1.4
6763.0,0.62,1.39,1.4
6765.0,0.81,1.38,1.37
6767.0,0.86,1.4,1.39
6769.0,0.93,1.42,1.44
6771.0,0.99,1.42,1.47
6773.0,0.99,1.41,1.47
6775.0,0.99,1.4,1.48
6777.0,0.99,1.45,1.48
6779.0,0.94,1.42,1.48
6781.0,0.98,1.38,1.52
6784.0,1.05,1.36,1.54
6786.0,1.21,1.37,1.56
6788.0,1.22,1.38,1.58
6790.0,1.26,1.43,1.59
6791.0,1.3,1.49,1.6
6793.0,1.21,1.47,1.58
6795.0,1.29,1.48,1.56
6797.0,1.46,1.46,1.54
6799.0,1.51,1.44,1.52
6801.0,1.53,1.42,1.49
6803.0,1.52,1.4,1.47
6805.0,1.55,1.38,1.44
6807.0,1.55,1.38,1.41
6809.0,1.6,1.39,1.43
6811.0,1.64,1.36,1.4
6813.0,1.62,1.36,1.41
6815.0,1.62,1.36,1.39
6817.0,1.68,1.33,1.4
6819.0,1.73,1.26,1.4
6821.0,1.83,1.25,1.43
6823.0,1.85,1.25,1.43
6825.0,1.9,1.18,1.44
6828.0,1.85,1.12,1.43
6830.0,1.87,1.1,1.42
6832.0,1.85,1.13,1.44
6833.0,1.87,1.13,1.44
6835.0,1.86,1.17,1.42
6837.0,1.93,1.19,1.44
6839.0,1.92,1.2,1.42
6841.0,1.92,1.24,1.43
6843.0,1.94,1.27,1.42
6845.0,1.91,1.32,1.4
6847.0,1.82,1.37,1.4
6849.0,1.84,1.4,1.4
6851.0,1.89,1.37,1.39
6853.0,1.91,1.39,1.4
6855.0,1.87,1.36,1.41
6857.0,1.87,1.32,1.42
6859.0,1.89,1.24,1.47
6861.0,1.84,1.25,1.51
6863.0,1.76,1.29,1.5
6865.0,1.72,1.3,1.51
6867.0,1.6,1.29,1.53
6870.0,1.76,1.34,1.55
6872.0,1.79,1.34,1.57
6874.0,1.87,1.38,1.55
6875.0,1.84,1.35,1.5
6877.0,1.74,1.27,1.49
6879.0,1.74,1.29,1.49
6881.0,1.76,1.32,1.48
6883.0,1.72,1.33,1.47
6885.0,1.63,1.33,1.47
6887.0,1.58,1.28,1.48
6889.0,1.5,1.31,1.45
6891.0,1.44,1.38,1.41
6893.0,1.38,1.4,1.42
6895.0,1.21,1.35,1.43
6897.0,1.18,1.3,1.43
6899.0,1.3,1.32,1.4
6901.0,1.32,1.32,1.37
6903.0,1.22,1.31,1.37
6905.0,1.2,1.34,1.4
6907.0,1.17,1.36,1.38
6909.0,1.17,1.37,1.38
6912.0,1.2,1.4,1.39
6914.0,1.17,1.42,1.38
6916.0,1.15,1.46,1.39
6918.0,1.13,1.45,1.41
6919.0,1.09,1.39,1.41
6921.0,1.06,1.37,1.38
6923.0,1.17,1.38,1.41
6925.0,1.09,1.44,1.42
6927.0,1.16,1.45,1.42
6929.0,1.31,1.45,1.43
6931.0,1.34,1.44,1.41
6933.0,1.36,1.42,1.41
6935.0,1.38,1.45,1.38
6937.0,1.39,1.44,1.38
6939.0,1.42,1.42,1.41
6941.0,1.44,1.44,1.42
6943.0,1.44,1.42,1.43
6945.0,1.48,1.45,1.45
6947.0,1.46,1.51,1.46
6949.0,1.53,1.54,1.47
6951.0,1.65,1.46,1.44
6953.0,1.64,1.42,1.4
6956.0,1.58,1.42,1.39
6958.0,1.6,1.41,1.4
6960.0,1.65,1.39,1.42
6961.0,1.6,1.37,1.44
6963.0,1.64,1.36,1.45
6965.0,1.58,1.41,1.45
6967.0,1.67,1.38,1.46
6969.0,1.67,1.36,1.46
6971.0,1.63,1.37,1.44
6973.0,1.53,1.38,1.39
6975.0,1.6,1.41,1.41
6977.0,1.68,1.38,1.42
6979.0,1.66,1.32,1.47
6981.0,1.61,1.33,1.47
6983.0,1.54,1.37,1.45
6985.0,1.54,1.42,1.44
6987.0,1.5,1.44,1.44
6989.0,1.4,1.48,1.41
6991.0,1.48,1.52,1.38
6993.0,1.46,1.54,1.36
6995.0,1.46,1.52,1.34
6998.0,1.45,1.49,1.31
7000.0,1.42,1.52,1.31
7002.0,1.41,1.5,1.34
7003.0,1.41,1.47,1.38
7005.0,1.57,1.46,1.41
7007.0,1.59,1.5,1.4
7009.0,1.51,1.53,1.37
7011.0,1.47,1.5,1.38
7013.0,1.52,1.54,1.35
7015.0,1.51,1.56,1.34
7017.0,1.46,1.55,1.33
7019.0,1.46,1.54,1.32
7021.0,1.58,1.55,1.3
7023.0,1.69,1.56,1.3
7025.0,1.79,1.54,1.31
7027.0,1.85,1.5,1.32
7029.0,1.78,1.52,1.37
7031.0,1.79,1.49,1.38
7033.0,1.88,1.55,1.38
7035.0,1.87,1.53,1.38
7037.0,1.85,1.55,1.38
7040.0,1.76,1.55,1.37
7042.0,1.83,1.55,1.36
7044.0,1.81,1.54,1.36
7046.0,1.75,1.54,1.36
7047.0,1.8,1.51,1.38
7049.0,1.87,1.53,1.42
7051.0,1.88,1.5,1.42
7053.0,1.75,1.49,1.42
7055.0,1.65,1.49,1.43
7057.0,1.79,1.47,1.43
7059.0,1.75,1.47,1.44
7061.0,1.75,1.54,1.42
7063.0,1.71,1.56,1.42
7065.0,1.65,1.59,1.42
7067.0,1.64,1.58,1.45
7069.0,1.56,1.5,1.44
7071.0,1.48,1.43,1.43
7073.0,1.48,1.41,1.42
7075.0,1.37,1.43,1.41
7077.0,1.22,1.39,1.43
7079.0,1.25,1.35,1.45
7081.0,1.19,1.35,1.48
7084.0,1.08,1.41,1.49
7086.0,1.15,1.45,1.5
7088.0,1.15,1.45,1.51
7089.0,1.23,1.45,1.53
7091.0,1.26,1.45,1.53
7093.0,1.18,1.47,1.52
7095.0,1.13,1.44,1.52
7097.0,1.13,1.45,1.53
7099.0,1.11,1.43,1.52
7101.0,1.12,1.43,1.49
7103.0,1.05,1.44,1.48
7105.0,0.94,1.45,1.48
7107.0,0.87,1.44,1.51
7109.0,0.88,1.4,1.53
7111.0,0.96,1.38,1.55
7113.0,1.05,1.38,1.55
7115.0,1.01,1.37,1.55
7117.0,0.95,1.35,1.56
7119.0,0.98,1.35,1.56
7121.0,1.07,1.34,1.56
7123.0,1.02,1.35,1.57
7126.0,0.96,1.4,1.57
7128.0,0.9,1.4,1.57
7130.0,0.84,1.4,1.57
7131.0,0.87,1.39,1.55
7133.0,0.96,1.41,1.57
7135.0,0.92,1.46,1.57
7137.0,0.89,1.42,1.55
7139.0,0.77,1.38,1.51
7141.0,0.76,1.36,1.5
7143.0,0.91,1.38,1.51
7145.0,0.96,1.39,1.54
7147.0,0.99,1.4,1.52
7149.0,1.01,1.42,1.52
7151.0,1.02,1.41,1.47
7153.0,1.0,1.43,1.45
7155.0,1.06,1.44,1.43
7157.0,1.1,1.42,1.42
7159.0,1.12,1.44,1.43
7161.0,1.22,1.41,1.42
7163.0,1.21,1.39,1.41
7165.0,1.17,1.41,1.41
7168.0,1.15,1.41,1.42
7170.0,1.17,1.39,1.44
7172.0,1.08,1.38,1.44
7174.0,1.16,1.39,1.44
7175.0,1.25,1.41,1.45
7177.0,1.22,1.45,1.45
7179.0,1.2,1.48,1.45
7181.0,1.23,1.46,1.44
7183.0,1.28,1.43,1.43
7185.0,1.25,1.42,1.45
7187.0,1.24,1.42,1.45
7189.0,1.32,1.45,1.45
7191.0,1.32,1.46,1.44
7193.0,1.32,1.5,1.44
7195.0,1.32,1.52,1.4
7197.0,1.3,1.5,1.39
7199.0,1.18,1.51,1.41
7201.0,1.32,1.54,1.41
7203.0,1.32,1.53,1.45
7205.0,1.28,1.52,1.46
7207.0,1.27,1.48,1.46
7209.0,1.24,1.48,1.45
7212.0,1.3,1.45,1.45
7214.0,1.27,1.46,1.43
7216.0,1.32,1.42,1.45
7217.0,1.38,1.43,1.45
7219.0,1.33,1.42,1.46
7221.0,1.22,1.41,1.46
7223.0,1.22,1.39,1.46
7225.0,1.23,1.41,1.47
7227.0,1.18,1.43,1.45
7229.0,1.12,1.42,1.45
7231.0,1.1,1.43,1.47
7233.0,1.18,1.46,1.41
7235.0,1.22,1.46,1.38
7237.0,1.21,1.41,1.37
7239.0,1.24,1.4,1.37
7241.0,1.32,1.36,1.38
7243.0,1.24,1.42,1.39
7245.0,1.27,1.43,1.41
7247.0,1.27,1.42,1.42
7249.0,1.22,1.42,1.45
7251.0,1.17,1.41,1.47
7254.0,1.23,1.38,1.45
7256.0,1.28,1.39,1.44
7258.0,1.26,1.4,1.45
7260.0,1.22,1.42,1.46
7261.0,1.14,1.46,1.46
7263.0,1.1,1.48,1.46
7265.0,1.16,1.47,1.47
7267.0,1.19,1.47,1.49
7269.0,1.13,1.52,1.47
7271.0,1.19,1.54,1.47
7273.0,1.34,1.57,1.48
7275.0,1.3,1.58,1.46
7277.0,1.25,1.52,1.44
7279.0,1.33,1.52,1.43
7281.0,1.32,1.51,1.45
7283.0,1.32,1.53,1.47
7285.0,1.42,1.5,1.51
7287.0,1.52,1.5,1.49
7289.0,1.5,1.52,1.49
7291.0,1.45,1.59,1.46
7293.0,1.41,1.57,1.46
7296.0,1.38,1.57,1.48
7298.0,1.37,1.59,1.47
7300.0,1.32,1.58,1.46
7302.0,1.27,1.58,1.43
7303.0,1.24,1.56,1.43
7305.0,1.25,1.54,1.43
7307.0,1.26,1.53,1.44
7309.0,1.35,1.53,1.45
7311.0,1.42,1.52,1.44
7313.0,1.39,1.51,1.45
7315.0,1.45,1.52,1.46
7317.0,1.46,1.54,1.46
7319.0,1.52,1.51,1.46
7321.0,1.44,1.48,1.45
7323.0,1.53,1.49,1.44
7325.0,1.56,1.48,1.37
7327.0,1.54,1.48,1.35
7329.0,1.56,1.48,1.35
7331.0,1.57,1.48,1.37
7333.0,1.54,1.46,1.36
7335.0,1.45,1.44,1.35
7337.0,1.4,1.45,1.36
7340.0,1.45,1.47,1.38
7342.0,1.45,1.5,1.39
7344.0,1.46,1.49,1.4
7345.0,1.49,1.47,1.42
7347.0,1.5,1.5,1.45
7349.0,1.5,1.51,1.46
7351.0,1.43,1.52,1.61
7353.0,1.32,1.53,1.68
7355.0,1.4,1.5,1.64
7357.0,1.5,1.5,1.61
7359.0,1.43,1.5,1.68
7361.0,1.41,1.52,1.77
7363.0,1.44,1.52,1.76
7365.0,1.39,1.48,1.66
7367.0,1.37,1.46,1.5
7369.0,1.35,1.5,1.44
7371.0,1.37,1.55,1.4
7373.0,1.38,1.53,1.4
7375.0,1.34,1.5,1.38
7377.0,1.3,1.5,1.34
7379.0,1.35,1.49,1.32
7382.0,1.35,1.45,1.32
7384.0,1.26,1.45,1.31
7386.0,1.29,1.45,1.32
7388.0,1.36,1.48,1.33
7389.0,1.33,1.52,1.33
7391.0,1.32,1.51,1.34
7393.0,1.39,1.5,1.37
7395.0,1.45,1.53,1.39
7397.0,1.52,1.57,1.36
7399.0,1.42,1.59,1.35
7401.0,1.29,1.6,1.33
7403.0,1.48,1.58,1.32
7405.0,1.57,1.55,1.33
7407.0,1.55,1.56,1.38
7409.0,1.52,1.57,1.39
7411.0,1.49,1.57,1.39
7413.0,1.5,1.55,1.39
7415.0,1.49,1.55,1.39
7417.0,1.51,1.55,1.39
7419.0,1.47,1.51,1.38
7421.0,1.48,1.49,1.37
7424.0,1.46,1.51,1.39
7426.0,1.47,1.51,1.4
7428.0,1.56,1.48,1.45
7430.0,1.53,1.48,1.47
7431.0,1.49,1.47,1.49
7433.0,1.49,1.51,1.5
7435.0,1.5,1.52,1.5
7437.0,1.48,1.51,1.49
7439.0,1.44,1.5,1.48
7441.0,1.37,1.47,1.45
7443.0,1.34,1.45,1.44
7445.0,1.36,1.51,1.41
7447.0,1.38,1.54,1.4
7449.0,1.35,1.57,1.41
7451.0,1.31,1.52,1.42
7453.0,1.3,1.51,1.41
7455.0,1.37,1.48,1.43
7457.0,1.47,1.51,1.43
7459.0,1.38,1.46,1.42
7461.0,1.4,1.43,1.4
7463.0,1.41,1.43,1.43
7465.0,1.44,1.44,1.42
7468.0,1.44,1.43,1.44
7470.0,1.44,1.44,1.44
7472.0,1.42,1.47,1.43
7473.0,1.44,1.48,1.42
7475.0,1.39,1.51,1.42
7477.0,1.44,1.5,1.41
7479.0,1.53,1.46,1.44
7481.0,1.5,1.43,1.44
7483.0,1.5,1.47,1.43
7485.0,1.52,1.46,1.43
7487.0,1.56,1.45,1.47
7489.0,1.54,1.46,1.52
7491.0,1.49,1.45,1.48
7493.0,1.46,1.44,1.44
7495.0,1.45,1.43,1.4
7497.0,1.49,1.39,1.38
7499.0,1.51,1.38,1.34
7501.0,1.38,1.34,1.34
7503.0,1.33,1.35,1.35
7505.0,1.39,1.39,1.37
7507.0,1.42,1.44,1.39
7510.0,1.41,1.4,1.37
7512.0,1.35,1.37,1.4
7514.0,1.39,1.34,1.39
7516.0,1.45,1.35,1.37
7517.0,1.47,1.42,1.32
7519.0,1.37,1.43,1.29
7521.0,1.37,1.38,1.28
7523.0,1.47,1.38,1.29
7525.0,1.43,1.4,1.32
7527.0,1.36,1.42,1.35
7529.0,1.34,1.45,1.39
7531.0,1.33,1.41,1.39
7533.0,1.39,1.38,1.36
7535.0,1.42,1.37,1.33
7537.0,1.4,1.35,1.33
7539.0,1.37,1.37,1.37
7541.0,1.37,1.38,1.39
7543.0,1.39,1.35,1.4
7545.0,1.43,1.39,1.43
7547.0,1.46,1.48,1.48
7549.0,1.42,1.46,1.51
7552.0,1.42,1.43,1.46
7554.0,1.43,1.37,1.46
7556.0,1.44,1.43,1.47
7558.0,1.36,1.44,1.45
7559.0,1.47,1.45,1.44
7561.0,1.49,1.45,1.42
7563.0,1.48,1.47,1.43
7565.0,1.49,1.44,1.43
7567.0,1.54,1.49,1.42
7569.0,1.55,1.48,1.41
7571.0,1.54,1.44,1.4
7573.0,1.57,1.45,1.39
7575.0,1.58,1.49,1.37
7577.0,1.53,1.47,1.37
7579.0,1.41,1.46,1.37
7581.0,1.43,1.46,1.38
7583.0,1.56,1.46,1.42
7585.0,1.61,1.47,1.43
7587.0,1.52,1.45,1.44
7589.0,1.45,1.47,1.51
7591.0,1.36,1.42,1.53
7593.0,1.22,1.41,1.54
7596.0,1.31,1.42,1.55
7598.0,1.29,1.45,1.56
7600.0,1.31,1.45,1.56
7602.0,1.38,1.5,1.57
7603.0,1.4,1.49,1.58
7605.0,1.32,1.47,1.6
7607.0,1.32,1.44,1.62
7609.0,1.28,1.44,1.61
7611.0,1.25,1.39,1.59
7613.0,1.23,1.37,1.61
7615.0,1.21,1.45,1.66
7617.0,1.21,1.45,1.62
7619.0,1.24,1.43,1.6
7621.0,1.19,1.4,1.54
7623.0,1.24,1.39,1.5
7625.0,1.36,1.4,1.52
7627.0,1.38,1.41,1.54
7629.0,1.34,1.4,1.56
7631.0,1.33,1.41,1.54
7633.0,1.36,1.38,1.52
7635.0,1.38,1.4,1.48
7638.0,1.39,1.44,1.44
7640.0,1.42,1.45,1.44
7642.0,1.39,1.47,1.45
7644.0,1.32,1.43,1.44
7645.0,1.45,1.42,1.45
7647.0,1.54,1.45,1.47
7649.0,1.47,1.45,1.43
7651.0,1.46,1.45,1.43
7653.0,1.48,1.41,1.43
7655.0,1.5,1.43,1.43
7657.0,1.47,1.4,1.42
7659.0,1.49,1.37,1.44
7661.0,1.48,1.38,1.45
7663.0,1.46,1.4,1.44
7665.0,1.42,1.49,1.44
7667.0,1.42,1.55,1.42
7669.0,1.46,1.49,1.47
7671.0,1.47,1.5,1.48
7673.0,1.5,1.51,1.45
7675.0,1.46,1.45,1.46
7677.0,1.43,1.43,1.45
7680.0,1.35,1.42,1.45
7682.0,1.46,1.45,1.45
7684.0,1.75,1.48,1.42
7686.0,1.66,1.47,1.39
7687.0,1.55,1.49,1.4
7689.0,1.52,1.52,1.41
7691.0,1.63,1.52,1.42
7693.0,1.63,1.5,1.44
7695.0,1.63,1.51,1.43
7697.0,1.56,1.53,1.41
7699.0,1.42,1.54,1.4
7701.0,1.41,1.53,1.38
7703.0,1.55,1.42,1.4
7705.0,1.64,1.38,1.43
7707.0,1.52,1.37,1.47
7709.0,1.5,1.42,1.51
7711.0,1.69,1.45,1.53
7713.0,1.68,1.46,1.5
7715.0,1.65,1.45,1.48
7717.0,1.65,1.44,1.47
7719.0,1.69,1.45,1.43
7721.0,1.62,1.44,1.41
7724.0,1.58,1.43,1.42
7726.0,1.6,1.43,1.44
7728.0,1.65,1.47,1.45
7730.0,1.78,1.45,1.47
7731.0,1.85,1.44,1.47
7733.0,1.73,1.47,1.46
7735.0,1.8,1.44,1.45
7737.0,1.85,1.42,1.41
7739.0,1.77,1.41,1.39
7741.0,1.75,1.43,1.4
7743.0,1.82,1.44,1.43
7745.0,1.76,1.52,1.42
7747.0,1.76,1.54,1.42
7749.0,1.86,1.58,1.43
7751.0,1.73,1.59,1.42
7753.0,1.64,1.54,1.4
7755.0,1.84,1.53,1.4
7757.0,1.89,1.51,1.39
7759.0,1.82,1.47,1.37
7761.0,1.89,1.49,1.36
7763.0,2.0,1.52,1.37
7766.0,2.0,1.55,1.4
7768.0,1.64,1.57,1.42
7770.0,1.55,1.55,1.41
7772.0,2.12,1.51,1.39
7773.0,2.09,1.5,1.39
7775.0,1.98,1.5,1.37
7777.0,1.78,1.53,1.39
7779.0,1.87,1.48,1.37
7781.0,1.95,1.43,1.37
7783.0,1.75,1.4,1.4
7785.0,1.6,1.54,1.42
7787.0,1.65,1.5,1.43
7789.0,1.69,1.49,1.44
7791.0,1.83,1.53,1.48
7793.0,1.73,1.56,1.51
7795.0,0.96,1.55,1.52
7797.0,1.34,1.49,1.53
7799.0,1.76,1.49,1.52
7801.0,1.66,1.48,1.48
7803.0,1.43,1.51,1.5
7805.0,1.31,1.55,1.55
7808.0,1.68,1.62,1.57
7810.0,1.86,1.57,1.58
7812.0,1.72,1.55,1.58
7814.0,1.75,1.6,1.62
7815.0,1.78,1.59,1.67
7817.0,1.86,1.59,1.65
7819.0,1.78,1.56,1.58
7821.0,2.02,1.71,1.57
7823.0,2.53,1.65,1.58
7825.0,2.8,1.68,1.54
7827.0,2.81,1.62,1.54
7829.0,2.83,1.6,1.49
7831.0,2.92,1.55,1.49
7833.0,2.99,1.52,1.47
7835.0,2.99,1.62,1.45
7837.0,3.27,1.64,1.44
7839.0,3.3,1.64,1.44
7841.0,3.3,1.77,1.42
7843.0,3.24,1.73,1.39
7845.0,3.15,1.71,1.42
7847.0,2.86,1.73,1.48
7849.0,3.3,1.68,1.51
7852.0,3.3,1.68,1.49
7854.0,3.3,1.53,1.45
7856.0,3.3,1.55,1.43
7858.0,3.12,1.49,1.45
7859.0,3.3,1.56,1.45
7861.0,3.3,1.65,1.4
7863.0,3.24,1.64,1.42
7865.0,3.16,1.67,1.41
7867.0,3.02,1.77,1.45
7869.0,2.87,1.74,1.46
7871.0,3.05,1.7,1.48
7873.0,2.96,1.66,1.5
7875.0,2.82,1.63,1.52
7877.0,2.48,1.67,1.49
7879.0,2.49,1.64,1.46
7881.0,2.65,1.69,1.48
7883.0,2.84,1.46,1.47
7885.0,2.7,1.5,1.55
7887.0,2.66,1.71,1.62
7889.0,2.78,1.8,1.57
7891.0,2.88,1.56,1.55
7894.0,2.96,1.67,1.54
7896.0,3.3,1.74,1.55
7898.0,3.3,1.83,1.49
7900.0,3.3,1.94,1.46
7901.0,3.3,1.91,1.49
7903.0,3.3,1.68,1.49
7905.0,3.3,1.46,1.44
7907.0,3.3,1.63,1.43
7909.0,3.3,1.66,1.42
7911.0,3.3,1.7,1.42
7913.0,3.3,1.71,1.41
7915.0,3.3,1.71,1.4
7917.0,3.3,1.54,1.45
7919.0,3.3,1.03,1.43
7921.0,3.3,0.87,1.4
7923.0,3.3,0.79,1.42
7925.0,3.3,0.7,1.46
7927.0,3.3,0.62,1.47
7929.0,3.3,0.73,1.47
7931.0,3.3,0.47,1.48
7933.0,3.09,0.44,1.5
7936.0,1.61,0.7,1.47
7938.0,1.64,0.68,1.45
7940.0,3.18,0.8,1.42
7942.0,2.28,0.75,1.47
7943.0,1.8,0.78,1.51
7945.0,1.72,0.97,1.51
7947.0,1.73,0.98,1.53
7949.0,1.65,0.85,1.52
7951.0,1.23,0.88,1.51
7953.0,0.24,0.83,1.52
7955.0,0.0,0.79,1.5
7957.0,0.0,0.91,1.48
7959.0,0.04,1.03,1.45
7961.0,0.0,1.07,1.45
7963.0,0.07,1.34,1.47
7965.0,0.39,1.25,1.46
7967.0,0.42,1.56,1.47
7969.0,0.0,2.13,1.48
7971.0,0.0,3.08,1.51
7973.0,0.0,3.3,1.51
7975.0,0.0,3.3,1.5
7977.0,0.0,3.3,1.48
7980.0,0.0,3.3,1.45
7982.0,0.0,3.16,1.43
7984.0,0.0,2.72,1.47
7986.0,0.0,2.28,1.47
7987.0,0.0,2.42,1.48
7989.0,0.0,2.02,1.49
7991.0,0.0,1.54,1.55
7993.0,0.0,0.85,1.62
7995.0,0.0,0.44,1.67
7997.0,0.0,0.0,1.68
7999.0,0.0,0.0,1.65
8001.0,0.0,0.0,1.59
8003.0,0.0,0.0,1.53
8005.0,0.0,0.0,1.51
8007.0,0.0,0.0,1.48
8009.0,0.0,0.0,1.43
8011.0,0.0,0.0,1.38
8013.0,0.0,0.0,1.37
8015.0,0.0,0.0,1.38
8017.0,0.0,0.0,1.36
8019.0,0.0,0.0,1.34
8022.0,0.0,0.03,1.33
8024.0,0.0,0.0,1.33
8026.0,0.0,0.0,1.3
8028.0,0.0,0.12,1.31
8029.0,0.0,0.54,1.3
8031.0,0.0,0.75,1.3
8033.0,0.0,0.99,1.3
8035.0,0.0,1.11,1.29
8037.0,0.0,0.97,1.32
8039.0,0.0,0.47,1.32
8041.0,0.0,0.12,1.36
8043.0,0.0,0.0,1.39
8045.0,0.0,0.08,1.47
8047.0,0.0,0.0,1.55
8049.0,0.0,0.0,1.6
8051.0,0.0,0.0,1.64
8053.0,0.0,0.0,1.67
8055.0,0.0,0.0,1.66
8057.0,0.0,0.0,1.64
8059.0,0.0,0.0,1.58
8061.0,0.0,0.0,1.54
8064.0,0.2,0.0,1.54
8066.0,3.3,0.0,1.55
8068.0,3.3,0.0,1.52
8070.0,3.3,0.0,1.52
8071.0,3.3,0.0,1.52
8073.0,3.3,0.0,1.53
8075.0,3.3,0.0,1.51
8077.0,3.3,0.0,1.52
8079.0,3.3,0.0,1.52
8081.0,3.3,0.0,1.52
8083.0,3.3,0.0,1.51
8085.0,3.3,0.0,1.45
8087.0,3.3,0.0,1.45
8089.0,3.3,0.0,1.44
8091.0,3.3,0.0,1.39
8093.0,3.3,0.0,1.39
8095.0,3.3,0.0,1.42
8097.0,3.3,0.0,1.43
8099.0,3.3,0.0,1.44
8101.0,3.3,0.0,1.46
8103.0,3.3,0.0,1.49
8105.0,3.3,0.0,1.49
8108.0,3.3,0.0,1.53
8110.0,3.3,0.0,1.54
8112.0,0.1,0.0,1.56
8114.0,0.0,0.0,1.57
8115.0,0.0,0.0,1.51
8117.0,0.0,0.04,1.53
8119.0,0.0,0.19,1.52
8121.0,0.0,0.38,1.51
8123.0,0.0,0.48,1.47
8125.0,0.0,0.56,1.49
8127.0,0.0,0.74,1.5
8129.0,0.0,1.05,1.47
8131.0,0.0,1.25,1.46
8133.0,0.0,1.1,1.46
8135.0,0.0,0.83,1.5
8137.0,0.0,0.81,1.52
8139.0,0.0,0.97,1.55
8141.0,0.0,1.0,1.56
8143.0,0.0,1.12,1.55
8145.0,0.0,1.2,1.52
8147.0,0.0,1.33,1.53
8150.0,0.0,1.62,1.52
8152.0,0.0,1.75,1.52
8154.0,0.0,2.82,1.52
8156.0,0.0,3.3,1.49
8157.0,0.0,3.3,1.45
8159.0,0.0,3.3,1.42
8161.0,0.0,3.3,1.41
8163.0,0.0,2.74,1.42
8165.0,0.0,2.15,1.46
8167.0,0.0,2.02,1.46
8169.0,0.0,2.02,1.46
8171.0,0.0,2.04,1.44
8173.0,0.0,1.95,1.41
8175.0,0.0,2.07,1.38
8177.0,0.0,2.09,1.36
8179.0,0.0,2.12,1.41
8181.0,0.0,2.3,1.44
8183.0,0.0,2.48,1.43
8185.0,0.0,2.54,1.45
8187.0,0.0,2.6,1.43
8189.0,0.0,2.86,1.42
8192.0,0.0,3.07,1.44
8194.0,0.0,2.9,1.45
8196.0,0.0,2.79,1.43
8198.0,0.0,2.94,1.41
8199.0,0.0,2.74,1.45
8201.0,0.0,2.95,1.46
8203.0,0.0,2.66,1.46
8205.0,0.0,2.81,1.46
8207.0,0.0,2.83,1.44
8209.0,0.0,2.96,1.42
8211.0,0.0,2.97,1.39
8213.0,0.0,3.06,1.41
8215.0,0.0,2.91,1.43
8217.0,0.0,2.73,1.42
8219.0,0.0,2.75,1.41
8221.0,0.0,2.75,1.38
8223.0,0.0,2.64,1.36
8225.0,0.0,2.64,1.35
8227.0,0.09,2.55,1.32
8229.0,0.26,2.68,1.3
8231.0,0.43,2.75,1.29
8233.0,0.58,2.75,1.28
8236.0,0.73,2.55,1.24
8238.0,0.87,2.51,1.21
8240.0,1.0,2.41,1.23
8242.0,1.12,2.25,1.23
8243.0,1.23,2.25,1.24
8245.0,1.33,2.23,1.25
8247.0,1.42,2.49,1.22
8249.0,1.51,2.55,1.21
8251.0,1.59,2.63,1.21
8253.0,1.66,2.67,1.28
8255.0,1.73,2.97,1.33
8257.0,1.79,3.11,1.36
8259.0,1.85,2.97,1.36
8261.0,1.91,3.27,1.36
8263.0,1.96,3.3,1.41
8265.0,2.0,3.3,1.49
8267.0,2.04,3.3,1.47
8269.0,2.08,3.3,1.45
8271.0,2.11,3.3,1.42
8273.0,2.14,3.3,1.42
8275.0,2.17,3.3,1.37
8278.0,2.19,3.3,1.37
8280.0,2.21,3.3,1.37
8282.0,2.24,3.3,1.31
8284.0,2.25,3.3,1.3
8285.0,2.26,3.3,1.37
8287.0,2.27,3.3,1.36
8289.0,2.29,3.3,1.3
8291.0,2.3,3.3,1.29
8293.0,2.31,3.3,1.25
8295.0,2.31,3.3,1.23
8297.0,2.32,3.3,1.26
8299.0,2.32,3.3,1.29
8301.0,2.32,3.3,1.31
8303.0,2.32,3.3,1.31
8305.0,2.32,3.3,1.32
8307.0,2.32,3.3,1.34
8309.0,2.32,3.3,1.32
8311.0,2.32,3.3,1.35
8313.0,2.31,3.3,1.37
8315.0,2.31,3.3,1.38
8317.0,2.3,3.3,1.4
8320.0,2.3,3.3,1.38
8322.0,2.29,3.3,1.36
8324.0,2.29,3.3,1.36
8326.0,2.28,3.3,1.39
8327.0,2.27,3.3,1.43
8329.0,2.26,3.3,1.45
8331.0,2.25,3.3,1.47
8333.0,2.25,3.3,1.46
8335.0,2.24,3.3,1.45
8337.0,2.23,3.3,1.43
8339.0,2.22,3.3,1.4
8341.0,2.21,3.3,1.39
8343.0,2.2,3.15,1.32
8345.0,2.19,2.8,1.27
8347.0,2.18,2.66,1.32
8349.0,2.17,2.44,1.37
8351.0,2.16,2.29,1.38
8353.0,2.15,2.19,1.36
8355.0,2.15,2.04,1.34
8357.0,2.14,1.88,1.39
8359.0,2.13,1.85,1.37
8361.0,2.12,1.58,1.33
8364.0,2.11,1.49,1.29
8366.0,2.1,1.28,1.28
8368.0,2.08,1.16,1.26
8370.0,2.08,1.47,1.3
8371.0,2.06,1.58,1.29
8373.0,2.05,1.43,1.26
8375.0,2.05,1.36,1.24
8377.0,2.04,1.38,1.21
8379.0,2.03,1.35,1.19
8381.0,2.02,1.34,1.18
8383.0,2.01,1.35,1.16
8385.0,2.0,1.31,1.16
8387.0,1.99,1.37,1.22
8389.0,1.98,1.21,1.19
8391.0,1.97,1.15,1.13
8393.0,1.96,1.16,1.09
8395.0,1.95,1.09,1.07
8397.0,1.95,1.02,1.08
8399.0,1.94,1.08,1.07
8401.0,1.93,1.21,1.13
8403.0,1.92,1.24,1.17
8406.0,1.91,1.16,1.22
8408.0,1.9,1.26,1.19
8410.0,1.89,1.43,1.17
8412.0,1.89,1.43,1.16
8413.0,1.88,1.47,1.17
8415.0,1.87,1.35,1.17
8417.0,1.86,1.35,1.15
8419.0,1.85,1.21,1.14
8421.0,1.85,1.07,1.15
8423.0,1.84,0.83,1.17
8425.0,1.83,0.71,1.17
8427.0,1.83,0.58,1.2
8429.0,1.82,0.67,1.22
8431.0,1.81,0.88,1.25
8433.0,1.8,1.09,1.26
8435.0,1.8,1.11,1.27
8437.0,1.79,1.11,1.29
8439.0,1.79,1.06,1.24
8441.0,1.78,1.03,1.25
8443.0,1.77,1.02,1.26
8445.0,1.76,0.98,1.28
8448.0,1.76,0.98,1.3
8450.0,1.75,0.95,1.31
8452.0,1.75,1.01,1.34
8454.0,1.74,1.17,1.39
8455.0,1.74,1.12,1.41
8457.0,1.73,1.1,1.4
8459.0,1.73,1.11,1.43
8461.0,1.72,1.14,1.42
8463.0,1.72,0.95,1.44
8465.0,1.71,0.88,1.45
8467.0,1.7,0.83,1.45
8469.0,1.7,0.88,1.47
8471.0,1.69,0.9,1.48
8473.0,1.69,0.89,1.47
8475.0,1.68,0.89,1.47
8477.0,1.68,0.85,1.49
8479.0,1.68,0.81,1.54
8481.0,1.67,0.86,1.52
8483.0,1.67,0.8,1.5
8485.0,1.66,0.81,1.52
8487.0,1.66,0.76,1.49
8489.0,1.65,0.64,1.41
8492.0,1.65,0.6,1.37
8494.0,1.65,0.71,1.35
8496.0,1.64,0.68,1.35
8498.0,1.64,0.63,1.36
8499.0,1.64,0.71,1.38
8501.0,1.63,0.62,1.38
8503.0,1.63,0.71,1.4
8505.0,1.62,0.86,1.43
8507.0,1.62,0.82,1.42
8509.0,1.62,0.74,1.42
8511.0,1.61,0.72,1.43
8513.0,1.61,0.68,1.46
8515.0,1.61,0.71,1.47
8517.0,1.6,0.75,1.46
8519.0,1.6,0.7,1.46
8521.0,1.6,0.77,1.44
8523.0,1.6,0.84,1.49
8525.0,1.59,0.81,1.54
8527.0,1.59,0.81,1.53
8529.0,1.58,0.71,1.5
8531.0,1.58,0.63,1.49
8534.0,1.58,0.56,1.48
8536.0,1.58,0.54,1.49
8538.0,1.58,0.54,1.51
8540.0,1.57,0.6,1.53
8541.0,1.57,0.63,1.55
8543.0,1.57,0.63,1.54
8545.0,1.56,0.75,1.54
8547.0,1.56,0.81,1.54
8549.0,1.56,0.8,1.53
8551.0,1.56,0.83,1.5
8553.0,1.55,0.86,1.5
8555.0,1.55,0.89,1.53
8557.0,1.55,0.89,1.51
8559.0,1.55,0.89,1.5
8561.0,1.55,0.88,1.52
8563.0,1.55,0.92,1.54
8565.0,1.54,0.92,1.56
8567.0,1.54,0.85,1.56
8569.0,1.54,0.94,1.51
8571.0,1.54,1.04,1.5
8573.0,1.54,1.06,1.51
8576.0,1.53,1.16,1.5
8578.0,1.53,1.2,1.51
8580.0,1.53,1.16,1.51
8582.0,1.53,1.16,1.51
8583.0,1.53,1.14,1.51
8585.0,1.53,1.11,1.5
8587.0,1.52,1.16,1.5
8589.0,1.52,1.18,1.48
8591.0,1.52,1.19,1.46
8593.0,1.52,1.1,1.45
8595.0,1.52,1.06,1.46
8597.0,1.52,1.28,1.45
8599.0,1.52,1.58,1.42
8601.0,1.51,1.72,1.41
8603.0,1.51,1.64,1.42
8605.0,1.51,1.67,1.43
8607.0,1.51,1.65,1.42
8609.0,1.51,1.56,1.39
8611.0,1.51,1.48,1.35
8613.0,1.5,1.48,1.34
8615.0,1.5,1.44,1.35
8617.0,1.5,1.38,1.38
8620.0,1.5,1.41,1.4
8622.0,1.5,1.29,1.41
8624.0,1.5,1.3,1.44
8626.0,1.5,1.32,1.49
8627.0,1.5,1.36,1.55
8629.0,1.49,1.41,1.56
8631.0,1.49,1.44,1.51
8633.0,1.49,1.42,1.46
8635.0,1.49,1.42,1.44
8637.0,1.49,1.34,1.46
8639.0,1.49,1.21,1.46
8641.0,1.49,1.14,1.47
8643.0,1.49,1.13,1.46
8645.0,1.49,1.11,1.46
8647.0,1.49,1.14,1.45
8649.0,1.48,1.22,1.45
8651.0,1.48,1.15,1.42
8653.0,1.48,1.13,1.41
8655.0,1.48,1.16,1.42
8657.0,1.48,1.13,1.43
8659.0,1.48,1.06,1.49
8662.0,1.48,1.04,1.54
8664.0,1.48,0.84,1.58
8666.0,1.48,0.75,1.57
8668.0,1.48,0.71,1.56
8669.0,1.48,0.68,1.55
8671.0,1.48,0.72,1.52
8673.0,1.48,0.76,1.54
8675.0,1.47,0.76,1.53
8677.0,1.47,0.9,1.54
8679.0,1.47,0.97,1.54
8681.0,1.47,1.02,1.56
8683.0,1.47,1.08,1.6
8685.0,1.47,1.17,1.59
8687.0,1.47,1.22,1.56
8689.0,1.47,1.22,1.57
8691.0,1.47,1.18,1.57
8693.0,1.47,1.19,1.56
8695.0,1.47,1.23,1.54
8697.0,1.47,1.26,1.51
8699.0,1.47,1.3,1.51
8701.0,1.47,1.27,1.49
8704.0,1.47,1.27,1.48
8706.0,1.47,1.27,1.52
8708.0,1.47,1.3,1.52
8710.0,1.46,1.32,1.54
8711.0,1.46,1.36,1.56
8713.0,1.46,1.38,1.57
8715.0,1.46,1.3,1.56
8717.0,1.46,1.29,1.55
8719.0,1.46,1.23,1.52
8721.0,1.46,1.22,1.52
8723.0,1.46,1.26,1.53
8725.0,1.46,1.3,1.55
8727.0,1.46,1.2,1.54
8729.0,1.46,1.21,1.54
8731.0,1.46,1.3,1.53
8733.0,1.46,1.32,1.51
8735.0,1.46,1.35,1.49
8737.0,1.46,1.35,1.48
8739.0,1.46,1.32,1.47
8741.0,1.46,1.33,1.5
8743.0,1.46,1.33,1.53
8745.0,1.46,1.35,1.54
8748.0,1.46,1.3,1.53
8750.0,1.46,1.36,1.52
8752.0,1.45,1.47,1.54
8754.0,1.46,1.49,1.53
8755.0,1.46,1.53,1.5
8757.0,1.46,1.55,1.51
8759.0,1.46,1.55,1.51
8761.0,1.46,1.5,1.48
8763.0,1.45,1.54,1.5
8765.0,1.45,1.52,1.51
8767.0,1.45,1.43,1.52
8769.0,1.45,1.45,1.54
8771.0,1.45,1.44,1.56
8773.0,1.45,1.41,1.56
8775.0,1.45,1.4,1.54
8777.0,1.45,1.33,1.53
8779.0,1.45,1.26,1.51
8781.0,1.45,0.99,1.49
8783.0,1.45,0.71,1.47
8785.0,1.45,0.67,1.49
8787.0,1.45,0.71,1.51
8790.0,1.45,0.73,1.54
8792.0,1.45,0.83,1.57
8794.0,1.45,0.82,1.58
8796.0,1.45,0.83,1.58
8797.0,1.45,0.89,1.57
8799.0,1.45,1.01,1.58
8801.0,1.45,1.04,1.54
8803.0,1.45,1.05,1.5
8805.0,1.45,1.15,1.47
8807.0,1.45,1.13,1.44
8809.0,1.45,1.19,1.45
8811.0,1.45,1.19,1.46
8813.0,1.45,0.86,1.47
8815.0,1.45,0.79,1.46
8817.0,1.45,0.83,1.46
8819.0,1.45,0.89,1.45
8821.0,1.45,0.95,1.46
8823.0,1.45,1.02,1.46
8825.0,1.45,1.17,1.45
8827.0,1.45,1.17,1.43
8829.0,1.45,1.24,1.45
8832.0,1.45,1.27,1.45
8834.0,1.45,1.31,1.48
8836.0,1.45,1.36,1.5
8838.0,1.45,1.38,1.53
8839.0,1.45,1.4,1.54
8841.0,1.45,1.42,1.52
8843.0,1.45,1.45,1.54
8845.0,1.45,1.48,1.55
8847.0,1.45,1.44,1.57
8849.0,1.45,1.34,1.56
8851.0,1.45,1.31,1.55
8853.0,1.45,1.4,1.5
8855.0,1.45,1.51,1.49
8857.0,1.45,1.52,1.49
8859.0,1.45,1.49,1.46
8861.0,1.45,1.48,1.45
8863.0,1.45,1.54,1.46
8865.0,1.45,1.56,1.49
8867.0,1.45,1.53,1.49
8869.0,1.45,1.53,1.47
8871.0,1.45,1.47,1.43
8873.0,1.45,1.41,1.43
8876.0,1.45,1.41,1.43
8878.0,1.45,1.42,1.42
8880.0,1.45,1.43,1.39
8882.0,1.45,1.42,1.41
8883.0,1.45,1.49,1.42
8885.0,1.45,1.63,1.43
8887.0,1.45,1.69,1.46
8889.0,1.45,1.72,1.5
8891.0,1.45,1.72,1.51
8893.0,1.45,1.72,1.54
8895.0,1.45,1.7,1.56
8897.0,1.45,1.63,1.57
8899.0,1.45,1.57,1.56
8901.0,1.45,1.6,1.54
8903.0,1.45,1.58,1.57
8905.0,1.45,1.58,1.57
8907.0,1.45,1.66,1.55
8909.0,1.45,1.61,1.54
8911.0,1.45,1.61,1.51
8913.0,1.44,1.63,1.49
8915.0,1.45,1.44,1.45
8918.0,1.45,1.29,1.41
8920.0,1.45,1.25,1.41
8922.0,1.45,1.16,1.43
8924.0,1.45,0.94,1.43
8925.0,1.44,0.89,1.44
8927.0,1.44,0.84,1.44
8929.0,1.44,0.85,1.41
8931.0,1.44,0.86,1.4
8933.0,1.45,0.87,1.42
8935.0,1.44,0.95,1.43
8937.0,1.45,0.95,1.42
8939.0,1.45,1.02,1.44
8941.0,1.45,1.03,1.42
8943.0,1.45,1.02,1.43
8945.0,1.44,1.08,1.42
8947.0,1.44,1.11,1.4
8949.0,1.44,1.19,1.41
8951.0,1.44,1.28,1.4
8953.0,1.44,1.35,1.41
8955.0,1.44,1.38,1.41
8957.0,1.45,1.38,1.4
8960.0,1.44,1.36,1.37
8962.0,1.44,1.5,1.4
8964.0,1.44,1.55,1.43
8966.0,1.44,1.55,1.45
8967.0,1.44,1.56,1.45
8969.0,1.44,1.61,1.45
8971.0,1.44,1.65,1.45
8973.0,1.44,1.68,1.42
8975.0,1.44,1.63,1.41
8977.0,1.44,1.61,1.4
8979.0,1.45,1.59,1.39
8981.0,1.45,1.58,1.37
8983.0,1.44,1.5,1.37
8985.0,1.44,1.55,1.41
8987.0,1.44,1.54,1.45
8989.0,1.44,1.53,1.44
8991.0,1.44,1.48,1.44
8993.0,1.44,1.46,1.4
8995.0,1.44,1.48,1.39
8997.0,1.44,1.43,1.39
8999.0,1.44,1.59,1.41
9001.0,1.44,1.63,1.44
9004.0,1.44,1.55,1.45
9006.0,1.44,1.22,1.48
9008.0,1.44,1.1,1.49
9010.0,1.44,1.18,1.48
9011.0,1.44,1.22,1.45
9013.0,1.44,1.3,1.43
9015.0,1.44,1.42,1.41
9017.0,1.44,1.45,1.37
9019.0,1.44,1.48,1.36
9021.0,1.44,1.57,1.3
9023.0,1.44,1.55,1.29
9025.0,1.44,1.55,1.29
9027.0,1.44,1.62,1.31
9029.0,1.44,1.6,1.3
9031.0,1.44,1.59,1.29
9033.0,1.44,1.62,1.29
9035.0,1.44,1.65,1.3
9037.0,1.44,1.65,1.31
9039.0,1.44,1.71,1.31
9041.0,1.44,1.78,1.28
9043.0,1.44,1.75,1.29
9046.0,1.44,1.77,1.3
9048.0,1.44,1.79,1.3
9050.0,1.44,1.79,1.32
9052.0,1.44,1.79,1.34
9053.0,1.44,1.78,1.3
9055.0,1.44,1.75,1.31
9057.0,1.44,1.75,1.3
9059.0,1.44,1.74,1.34
9061.0,1.44,1.72,1.33
9063.0,1.44,1.69,1.35
9065.0,1.44,1.67,1.37
9067.0,1.44,1.64,1.38
9069.0,1.44,1.67,1.38
9071.0,1.44,1.7,1.39
9073.0,1.44,1.72,1.42
9075.0,1.44,1.67,1.43
9077.0,1.44,1.65,1.42
9079.0,1.44,1.6,1.44
9081.0,1.44,1.51,1.42
9083.0,1.44,1.65,1.38
9085.0,1.44,1.69,1.38
9088.0,1.44,1.74,1.37
9090.0,1.44,1.74,1.37
9092.0,1.44,1.72,1.37
9094.0,1.44,1.75,1.38
9095.0,1.44,1.74,1.41
9097.0,1.44,1.72,1.4
9099.0,1.44,1.75,1.4
9101.0,1.44,1.73,1.41
9103.0,1.44,1.74,1.46
9105.0,1.44,1.77,1.49
9107.0,1.44,1.83,1.46
9109.0,1.44,1.85,1.46
9111.0,1.44,1.92,1.46
9113.0,1.44,2.04,1.45
9115.0,1.44,2.15,1.44
9117.0,1.44,2.14,1.45
9119.0,1.44,2.12,1.44
9121.0,1.44,2.11,1.43
9123.0,1.44,2.12,1.41
9125.0,1.44,2.04,1.39
9127.0,1.44,2.07,1.37
9129.0,1.44,2.0,1.37
9132.0,1.44,1.97,1.4
9134.0,1.44,1.91,1.39
9136.0,1.44,1.89,1.39
9138.0,1.44,1.91,1.42
9139.0,1.44,1.92,1.46
9141.0,1.44,1.87,1.46
9143.0,1.44,1.85,1.46
9145.0,1.44,1.85,1.44
9147.0,1.44,1.78,1.44
9149.0,1.44,1.81,1.45
9151.0,1.44,1.79,1.44
9153.0,1.44,1.75,1.44
9155.0,1.44,1.7,1.44
9157.0,1.44,1.69,1.44
9159.0,1.44,1.65,1.45
9161.0,1.44,1.59,1.48
9163.0,1.44,1.45,1.5
9165.0,1.44,1.36,1.51
9167.0,1.44,1.38,1.52
9169.0,1.44,1.5,1.5
9171.0,1.44,1.53,1.5
9174.0,1.44,1.52,1.5
9176.0,1.44,1.48,1.51
9178.0,1.44,1.39,1.53
9180.0,1.44,1.36,1.57
9181.0,1.44,1.34,1.58
9183.0,1.44,1.34,1.58
9185.0,1.44,1.31,1.56
9187.0,1.44,1.3,1.54
9189.0,1.44,1.27,1.53
9191.0,1.44,1.22,1.51
9193.0,1.44,1.23,1.5
9195.0,1.44,1.27,1.47
9197.0,1.44,1.32,1.45
9199.0,1.44,1.37,1.46
9201.0,1.44,1.31,1.47
9203.0,1.44,1.32,1.48
9205.0,1.44,1.3,1.48
9207.0,1.44,1.28,1.47
9209.0,1.44,1.29,1.45
9211.0,1.44,1.36,1.45
9213.0,1.44,1.29,1.43
9216.0,1.44,1.29,1.42
9218.0,1.44,1.29,1.42
9220.0,1.44,1.35,1.42
9222.0,1.44,1.33,1.44
9223.0,1.44,1.33,1.45
9225.0,1.44,1.38,1.47
9227.0,1.44,1.38,1.49
9229.0,1.44,1.37,1.53
9231.0,1.44,1.36,1.53
9233.0,1.44,1.36,1.54
9235.0,1.44,1.36,1.51
9237.0,1.44,1.38,1.46
9239.0,1.44,1.41,1.45
9241.0,1.44,1.45,1.47
9243.0,1.44,1.45,1.48
9245.0,1.44,1.45,1.5
9247.0,1.44,1.5,1.51
9249.0,1.44,1.46,1.54
9251.0,1.44,1.5,1.57
9253.0,1.44,1.44,1.59
9255.0,1.44,1.43,1.61
9257.0,1.44,1.44,1.61
9260.0,1.44,1.44,1.62
9262.0,1.44,1.45,1.63
9264.0,1.44,1.5,1.64
9266.0,1.44,1.55,1.65
9267.0,1.44,1.56,1.66
9269.0,1.44,1.55,1.62
9271.0,1.44,1.54,1.58
9273.0,1.44,1.55,1.58
9275.0,1.44,1.54,1.56
9277.0,1.44,1.54,1.55
9279.0,1.44,1.53,1.57
9281.0,1.44,1.55,1.58
9283.0,1.44,1.57,1.58
9285.0,1.44,1.55,1.59
9287.0,1.44,1.54,1.57
9289.0,1.44,1.54,1.48
9291.0,1.44,1.57,1.44
9293.0,1.44,1.56,1.43
9295.0,1.44,1.53,1.44
9297.0,1.44,1.55,1.48
9299.0,1.44,1.52,1.46
9302.0,1.44,1.51,1.45
9304.0,1.44,1.55,1.47
9306.0,1.44,1.67,1.47
9308.0,1.44,1.72,1.48
9309.0,1.44,1.72,1.46
9311.0,1.44,1.7,1.47
9313.0,1.44,1.69,1.48
9315.0,1.44,1.69,1.49
9317.0,1.44,1.64,1.5
9319.0,1.44,1.63,1.49
9321.0,1.44,1.68,1.47
9323.0,1.44,1.64,1.45
9325.0,1.44,1.62,1.44
9327.0,1.44,1.57,1.38
9329.0,1.44,1.51,1.38
9331.0,1.44,1.54,1.4
9333.0,1.44,1.55,1.38
9335.0,1.44,1.55,1.37
9337.0,1.44,1.48,1.41
9339.0,1.44,1.41,1.43
9341.0,1.44,1.41,1.45
9344.0,1.44,1.38,1.43
9346.0,1.44,1.4,1.44
9348.0,1.44,1.42,1.43
9350.0,1.44,1.45,1.41
9351.0,1.44,1.47,1.38
9353.0,1.44,1.44,1.37
9355.0,1.44,1.47,1.35
9357.0,1.44,1.51,1.34
9359.0,1.44,1.52,1.35
9361.0,1.44,1.51,1.37
9363.0,1.44,1.53,1.36
9365.0,1.44,1.5,1.39
9367.0,1.44,1.5,1.42
9369.0,1.44,1.54,1.44
9371.0,1.44,1.53,1.42
9373.0,1.44,1.51,1.37
9375.0,1.44,1.48,1.34
9377.0,1.44,1.45,1.32
9379.0,1.44,1.44,1.3
9381.0,1.44,1.44,1.31
9383.0,1.44,1.46,1.32
9385.0,1.44,1.45,1.29
9388.0,1.44,1.52,1.28
9390.0,1.44,1.52,1.27
9392.0,1.44,1.49,1.25
9394.0,1.44,1.49,1.23
9395.0,1.44,1.48,1.23
9397.0,1.44,1.43,1.2
9399.0,1.44,1.44,1.23
9401.0,1.44,1.48,1.31
9403.0,1.44,1.52,1.47
9405.0,1.44,1.52,1.49
9407.0,1.44,1.51,1.5
9409.0,1.44,1.54,1.5
9411.0,1.44,1.56,1.52
9413.0,1.44,1.57,1.53
9415.0,1.44,1.58,1.54
9417.0,1.44,1.58,1.55
9419.0,1.44,1.63,1.55
9421.0,1.44,1.67,1.57
9423.0,1.44,1.62,1.58
9425.0,1.44,1.58,1.57
9427.0,1.44,1.54,1.55
9430.0,1.44,1.5,1.62
9432.0,1.44,1.53,1.63
9434.0,1.44,1.47,1.58
9436.0,1.44,1.42,1.55
9437.0,1.44,1.37,1.48
9439.0,1.44,1.37,1.45
9441.0,1.44,1.41,1.46
9443.0,1.44,1.45,1.46
9445.0,1.44,1.44,1.44
9447.0,1.44,1.42,1.44
9449.0,1.44,1.42,1.45
9451.0,1.44,1.41,1.45
9453.0,1.44,1.34,1.44
9455.0,1.44,1.3,1.44
9457.0,1.44,1.28,1.41
9459.0,1.44,1.24,1.4
9461.0,1.44,1.22,1.42
9463.0,1.44,1.21,1.41
9465.0,1.44,1.19,1.41
9467.0,1.44,1.16,1.43
9469.0,1.44,1.19,1.41
9472.0,1.44,1.15,1.42
9474.0,1.44,1.1,1.4
9476.0,1.44,1.14,1.37
9478.0,1.44,1.2,1.35
9480.0,1.44,1.22,1.35
9481.0,1.44,1.24,1.35
9483.0,1.44,1.25,1.35
9485.0,1.44,1.24,1.3
9487.0,1.44,1.27,1.29
9489.0,1.44,1.26,1.31
9491.0,1.44,1.25,1.33
9493.0,1.44,1.31,1.31
9495.0,1.44,1.35,1.28
9497.0,1.44,1.34,1.28
9499.0,1.44,1.34,1.3
9501.0,1.44,1.38,1.31
9503.0,1.44,1.4,1.31
9505.0,1.44,1.43,1.36
9507.0,1.44,1.43,1.37
9509.0,1.44,1.42,1.36
9511.0,1.44,1.39,1.38
9513.0,1.44,1.35,1.37
9516.0,1.44,1.3,1.4
9518.0,1.44,1.41,1.41
9520.0,1.44,1.86,1.43
9522.0,1.44,2.45,1.43
9523.0,1.44,2.98,1.41
9525.0,1.44,3.3,1.42
9527.0,1.44,3.3,1.44
9529.0,1.44,3.3,1.41
9531.0,1.44,3.3,1.4
9533.0,1.44,3.3,1.43
9535.0,1.44,3.2,1.44
9537.0,1.44,3.14,1.44
9539.0,1.44,3.06,1.42
9541.0,1.44,2.97,1.42
9543.0,1.44,2.94,1.41
9545.0,1.44,2.87,1.42
9547.0,1.44,2.77,1.4
9549.0,1.44,2.66,1.41
9551.0,1.44,2.49,1.42
9553.0,1.44,2.42,1.39
9555.0,1.44,2.31,1.37
9558.0,1.44,2.21,1.43
9560.0,1.44,2.16,1.47
9562.0,1.44,2.06,1.46
9564.0,1.44,2.03,1.44
9565.0,1.44,1.95,1.42
9567.0,1.44,1.9,1.4
9569.0,1.44,1.8,1.4
9571.0,1.44,1.71,1.42
9573.0,1.44,1.67,1.44
9575.0,1.44,1.64,1.44
9577.0,1.44,1.62,1.42
9579.0,1.44,1.62,1.42
9581.0,1.44,1.59,1.4
9583.0,1.44,1.6,1.4
9585.0,1.44,1.58,1.37
9587.0,1.44,1.56,1.33
9589.0,1.44,1.47,1.32
9591.0,1.44,0.83,1.3
9593.0,1.44,0.69,1.28
9595.0,1.44,0.74,1.27
9597.0,1.44,0.89,1.26
9600.0,1.44,1.17,1.25
9602.0,1.44,1.36,1.27
9604.0,1.44,1.4,1.32
9606.0,1.44,1.43,1.38
9608.0,1.44,1.44,1.39
9609.0,1.44,1.42,1.38
9611.0,1.44,1.46,1.39
9613.0,1.44,1.44,1.38
9615.0,1.44,1.38,1.37
9617.0,1.44,1.34,1.38
9619.0,1.44,1.32,1.4
9621.0,1.44,1.34,1.38
9623.0,1.44,1.36,1.42
9625.0,1.44,1.31,1.4
9627.0,1.44,1.25,1.37
9629.0,1.44,1.22,1.35
9631.0,1.44,1.2,1.36
9633.0,1.44,1.18,1.35
9635.0,1.44,1.17,1.36
9637.0,1.44,1.14,1.39
9639.0,1.44,1.15,1.39
9641.0,1.44,1.14,1.43
9644.0,1.44,1.11,1.48
9646.0,1.44,1.08,1.45
9648.0,1.44,1.05,1.43
9650.0,1.44,1.02,1.39
9651.0,1.44,1.02,1.39
9653.0,1.44,1.04,1.4
9655.0,1.44,1.05,1.39
9657.0,1.44,1.02,1.38
9659.0,1.44,0.99,1.39
9661.0,1.44,1.01,1.38
9663.0,1.44,0.96,1.41
9665.0,1.44,0.94,1.45
9667.0,1.44,0.87,1.43
9669.0,1.44,0.86,1.43
9671.0,1.44,0.82,1.42
9673.0,1.44,0.75,1.45
9675.0,1.44,0.76,1.49
9677.0,1.44,0.76,1.5
9679.0,1.44,0.78,1.48
9681.0,1.44,0.79,1.48
9683.0,1.44,0.78,1.49
9686.0,1.44,0.77,1.5
9688.0,1.44,0.77,1.5
9690.0,1.44,0.81,1.5
9692.0,1.44,0.84,1.48
9693.0,1.44,0.85,1.47
9695.0,1.44,0.85,1.45
9697.0,1.44,0.84,1.42
9699.0,1.44,0.84,1.44
9701.0,1.44,0.85,1.45
9703.0,1.44,0.86,1.47
9705.0,1.44,0.86,1.45
9707.0,1.44,0.87,1.42
9709.0,1.44,0.83,1.37
9711.0,1.44,0.83,1.44
9713.0,1.44,0.92,1.48
9715.0,1.44,0.98,1.48
9717.0,1.44,0.98,1.46
9719.0,1.44,1.01,1.45
9721.0,1.44,1.01,1.46
9723.0,1.44,1.01,1.48
9725.0,1.44,1.03,1.49
9728.0,1.44,1.02,1.47
9730.0,1.44,0.99,1.45
9732.0,1.44,0.96,1.45
9734.0,1.44,0.96,1.44
9736.0,1.44,0.96,1.43
9737.0,1.44,1.0,1.43
9739.0,1.44,1.05,1.4
9741.0,1.44,1.06,1.41
9743.0,1.44,1.07,1.4
9745.0,1.44,1.04,1.37
9747.0,1.44,1.05,1.36
9749.0,1.44,1.04,1.34
9751.0,1.44,1.03,1.34
9753.0,1.44,1.04,1.34
9755.0,1.44,1.05,1.32
9757.0,1.44,1.07,1.32
9759.0,1.44,1.06,1.34
9761.0,1.44,1.0,1.39
9763.0,1.44,0.98,1.43
9765.0,1.44,0.95,1.42
9767.0,1.44,0.96,1.4
9769.0,1.44,0.93,1.39
9772.0,1.44,0.9,1.36
9774.0,1.44,0.91,1.35
9776.0,1.44,0.97,1.37
9778.0,1.44,0.96,1.35
9779.0,1.44,0.97,1.37
9781.0,1.44,0.99,1.37
9783.0,1.44,0.97,1.41
9785.0,1.44,0.97,1.44
9787.0,1.44,1.05,1.46
9789.0,1.44,1.1,1.45
9791.0,1.44,1.13,1.43
9793.0,1.44,1.14,1.4
9795.0,1.44,1.16,1.37
9797.0,1.44,1.19,1.35
9799.0,1.44,1.18,1.37
9801.0,1.44,1.17,1.4
9803.0,1.44,1.17,1.45
9805.0,1.44,1.14,1.49
9807.0,1.44,1.17,1.48
9809.0,1.44,1.26,1.47
9811.0,1.44,1.32,1.47
9814.0,1.44,1.41,1.48
9816.0,1.44,1.48,1.47
9818.0,1.44,1.5,1.47
9820.0,1.44,1.55,1.48
9821.0,1.44,1.56,1.47
9823.0,1.44,1.58,1.49
9825.0,1.44,1.57,1.51
9827.0,1.44,1.57,1.52
9829.0,1.44,1.57,1.51
9831.0,1.44,1.56,1.51
9833.0,1.44,1.55,1.51
9835.0,1.44,1.58,1.49
9837.0,1.44,1.59,1.5
9839.0,1.44,1.58,1.5
9841.0,1.44,1.61,1.48
9843.0,1.44,1.58,1.51
9845.0,1.44,1.57,1.51
9847.0,1.44,1.6,1.53
9849.0,1.44,1.61,1.55
9851.0,1.44,1.6,1.56
9853.0,1.44,1.6,1.57
9856.0,1.44,1.61,1.56
9858.0,1.44,1.63,1.51
9860.0,1.44,1.63,1.51
9862.0,1.44,1.66,1.53
9864.0,1.44,1.7,1.5
9865.0,1.44,1.7,1.48
9867.0,1.44,1.72,1.48
9869.0,1.44,1.72,1.49
9871.0,1.44,1.75,1.48
9873.0,1.44,1.72,1.45
9875.0,1.44,1.71,1.46
9877.0,1.44,1.7,1.49
9879.0,1.44,1.72,1.51
9881.0,1.44,1.76,1.5
9883.0,1.44,1.7,1.51
9885.0,1.44,1.68,1.49
9887.0,1.44,1.72,1.47
9889.0,1.44,1.75,1.48
9891.0,1.44,1.81,1.5
9893.0,1.44,1.71,1.46
9895.0,1.44,1.71,1.42
9897.0,1.44,1.7,1.4
9900.0,1.44,1.71,1.41
9902.0,1.44,1.66,1.42
9904.0,1.44,1.62,1.47
9906.0,1.44,1.59,1.48
9907.0,1.44,1.55,1.45
9909.0,1.44,1.5,1.43
9911.0,1.44,1.51,1.41
9913.0,1.44,1.51,1.38
9915.0,1.44,1.51,1.36
9917.0,1.44,1.47,1.35
9919.0,1.44,1.47,1.34
9921.0,1.44,1.52,1.35
9923.0,1.44,1.54,1.37
9925.0,1.44,1.5,1.37
9927.0,1.44,1.45,1.37
9929.0,1.44,1.45,1.39
9931.0,1.44,1.43,1.4
9933.0,1.44,1.38,1.41
9935.0,1.44,1.42,1.41
9937.0,1.44,1.52,1.43
9939.0,1.44,1.54,1.44
9942.0,1.44,1.59,1.45
9944.0,1.44,1.62,1.43
9946.0,1.44,1.58,1.39
9948.0,1.44,1.58,1.4
9949.0,1.44,1.55,1.4
9951.0,1.44,1.49,1.37
9953.0,1.44,1.58,1.42
9955.0,1.44,1.61,1.44
9957.0,1.44,1.55,1.44
9959.0,1.44,1.55,1.45
9961.0,1.44,1.57,1.44
9963.0,1.44,1.58,1.47
9965.0,1.44,1.59,1.49
9967.0,1.44,1.64,1.5
9969.0,1.44,1.63,1.47
9971.0,1.44,1.64,1.47
9973.0,1.44,1.64,1.46
9975.0,1.44,1.66,1.48
9977.0,1.44,1.71,1.51
9979.0,1.44,1.74,1.52
9981.0,1.44,1.69,1.51
9984.0,1.44,1.65,1.51
9986.0,1.44,1.67,1.51
9988.0,1.44,1.62,1.47
9990.0,1.44,1.53,1.46
9992.0,1.44,1.59,1.47
9993.0,1.44,1.58,1.49
9995.0,1.44,1.57,1.5
9997.0,1.44,1.55,1.49
9999.0,1.44,1.57,1.5
10001.0,1.44,1.58,1.52
10003.0,1.44,1.61,1.52
10005.0,1.44,1.63,1.5
10007.0,1.44,1.65,1.49
10009.0,1.44,1.58,1.49
10011.0,1.44,1.54,1.49
10013.0,1.44,1.51,1.48
10015.0,1.44,1.43,1.47
10017.0,1.44,1.48,1.47
10019.0,1.44,1.55,1.47
10021.0,1.44,1.55,1.46
10023.0,1.44,1.53,1.51
10025.0,1.44,1.53,1.5
10028.0,1.44,1.54,1.47
10030.0,1.44,1.56,1.46
10032.0,1.44,1.5,1.46
10034.0,1.44,1.39,1.63
10035.0,1.44,1.35,1.72
10037.0,1.44,1.39,1.69
10039.0,1.44,1.37,1.57
10041.0,1.44,1.35,1.5
10043.0,1.44,1.3,1.47
10045.0,1.44,1.24,1.45
10047.0,1.44,1.27,1.44
10049.0,1.44,1.35,1.4
10051.0,1.44,1.36,1.39
10053.0,1.44,1.4,1.4
10055.0,1.44,1.35,1.39
10057.0,1.44,1.33,1.38
10059.0,1.44,1.37,1.38
10061.0,1.44,1.39,1.38
10063.0,1.44,1.49,1.38
10065.0,1.44,1.5,1.38
10067.0,1.44,1.45,1.4
10070.0,1.44,1.45,1.39
10072.0,1.44,1.44,1.38
10074.0,1.44,1.44,1.36
10076.0,1.44,1.48,1.36
10078.0,1.44,1.49,1.38
10079.0,1.44,1.48,1.4
10081.0,1.44,1.49,1.38
10083.0,1.44,1.47,1.39
10085.0,1.44,1.45,1.39
10087.0,1.44,1.44,1.47
10089.0,1.44,1.5,1.54
10091.0,1.44,1.44,1.55
10093.0,1.44,1.35,1.56
10095.0,1.44,1.28,1.58
10097.0,1.44,1.29,1.58
10099.0,1.44,1.35,1.61
10101.0,1.44,1.38,1.62
10103.0,1.44,1.41,1.63
10105.0,1.44,1.44,1.6
10107.0,1.44,1.48,1.55
10109.0,1.44,1.52,1.54
10112.0,1.44,1.55,1.52
10114.0,1.44,1.57,1.51
10116.0,1.44,1.52,1.51
10118.0,1.44,1.54,1.49
10120.0,1.44,1.55,1.48
10121.0,1.44,1.55,1.5
10123.0,1.44,1.54,1.51
10125.0,1.44,1.55,1.48
10127.0,1.44,1.58,1.47
10129.0,1.44,1.54,1.47
10131.0,1.44,1.55,1.46
10133.0,1.44,1.56,1.47
10135.0,1.44,1.58,1.46
10137.0,1.44,1.59,1.45
10139.0,1.44,1.6,1.43
10141.0,1.44,1.59,1.45
10143.0,1.44,1.59,1.46
10145.0,1.44,1.55,1.47
10147.0,1.44,1.45,1.47
10149.0,1.44,1.36,1.45
10151.0,1.44,1.32,1.43
10153.0,1.44,1.34,1.43
10156.0,1.44,1.36,1.42
10158.0,1.44,1.42,1.42
10160.0,1.44,1.45,1.44
10162.0,1.44,1.5,1.46
10164.0,1.44,1.5,1.46
10165.0,1.44,1.52,1.46
10167.0,1.44,1.5,1.44
10169.0,1.44,1.5,1.4
10171.0,1.44,1.54,1.39
10173.0,1.44,1.53,1.4
10175.0,1.44,1.5,1.41
10177.0,1.44,1.51,1.41
10179.0,1.44,1.48,1.41
10181.0,1.44,1.52,1.43
10183.0,1.44,1.54,1.42
10185.0,1.44,1.55,1.4
10187.0,1.44,1.53,1.42
10189.0,1.44,1.47,1.4
10191.0,1.44,1.25,1.41
10193.0,1.44,1.21,1.42
10195.0,1.44,1.35,1.44
10198.0,1.44,1.25,1.47
10200.0,1.44,1.23,1.48
10202.0,1.44,1.34,1.47
10204.0,1.44,1.44,1.42
10206.0,1.44,1.46,1.39
10208.0,1.44,1.49,1.38
10209.0,1.44,1.52,1.37
10211.0,1.44,1.52,1.35
10213.0,1.44,1.59,1.36
10215.0,1.44,1.55,1.34
10217.0,1.44,1.53,1.35
10219.0,1.44,1.52,1.34
10221.0,1.44,1.54,1.35
10223.0,1.44,1.59,1.34
10225.0,1.44,1.62,1.35
10227.0,1.44,1.61,1.37
10229.0,1.44,1.7,1.39
10231.0,1.44,1.67,1.41
10233.0,1.44,1.59,1.41
10235.0,1.44,1.55,1.4
10237.0,1.44,1.65,1.42
10240.0,1.44,1.55,1.42
10242.0,1.44,1.48,1.41
10244.0,1.44,1.47,1.4
10246.0,1.44,1.5,1.39
10248.0,1.44,1.61,1.41
10250.0,1.44,1.58,1.43
10251.0,1.44,1.6,1.46
10253.0,1.44,1.55,1.48
10255.0,1.44,1.58,1.48
10257.0,1.44,1.59,1.49
10259.0,1.44,1.54,1.48
10261.0,1.44,1.55,1.47
10263.0,1.44,1.48,1.46
10265.0,1.44,1.53,1.45
10267.0,1.44,1.59,1.45
10269.0,1.44,1.73,1.45
10271.0,1.44,1.63,1.43
10273.0,1.44,1.66,1.43
10275.0,1.44,1.84,1.45
10277.0,1.44,1.87,1.45
10279.0,1.44,1.84,1.53
10281.0,1.44,1.79,1.65
10284.0,1.44,1.69,1.72
10286.0,1.44,1.78,1.76
10288.0,1.44,1.61,1.72
10290.0,1.44,1.45,1.72
10292.0,1.44,1.48,1.74
10294.0,1.44,1.39,1.76
10295.0,1.44,1.4,1.75
10297.0,1.44,1.43,1.79
10299.0,1.44,1.45,1.81
10301.0,1.44,1.48,1.83
10303.0,1.44,1.7,1.82
10305.0,1.44,1.74,1.83
10307.0,1.44,1.51,1.84
10309.0,1.44,1.66,1.78
10311.0,1.44,1.63,1.73
10313.0,1.44,1.89,1.73
10315.0,1.44,1.99,1.71
10317.0,1.44,2.24,1.71
10319.0,1.44,2.42,1.74
10321.0,1.44,2.48,1.71
10323.0,1.44,2.62,1.71
10326.0,1.44,2.73,1.77
10328.0,1.44,2.73,1.82
10330.0,1.44,2.78,1.84
10332.0,1.44,2.76,1.85
10334.0,1.44,2.76,1.88
10336.0,1.44,2.67,1.83
10337.0,1.44,2.73,1.8
10339.0,1.44,2.84,1.78
10341.0,1.44,2.76,1.78
10343.0,1.44,2.48,1.73
10345.0,1.44,2.37,1.59
10347.0,1.44,2.42,1.02
10349.0,1.44,2.31,0.8
10351.0,1.44,2.56,0.72
10353.0,1.44,1.88,0.67
10355.0,1.44,1.54,0.74
10357.0,1.44,1.36,0.84
10359.0,1.44,1.39,0.93
10361.0,1.44,1.52,0.99
10363.0,1.44,1.29,1.01
10365.0,1.44,0.88,1.06
10368.0,1.44,0.84,1.05
10370.0,1.44,0.92,1.05
10372.0,1.44,0.71,1.05
10374.0,1.44,0.48,1.09
10376.0,1.44,0.21,1.15
10378.0,1.44,0.0,1.19
10380.0,1.44,0.0,1.2
10381.0,1.44,0.0,1.23
10383.0,1.44,0.0,1.26
10385.0,1.44,0.0,1.28
10387.0,1.44,0.0,1.32
10389.0,1.44,0.0,1.34
10391.0,1.44,0.0,1.36
10393.0,1.44,0.0,1.41
10395.0,1.44,0.0,1.45
10397.0,1.44,0.0,1.45
10399.0,1.44,0.0,1.47
10401.0,1.44,0.0,1.47
10403.0,1.44,0.0,1.43
10405.0,1.44,0.0,1.46
10407.0,1.44,0.0,1.48
10409.0,1.44,0.0,1.52
10412.0,1.44,0.0,1.52
10414.0,1.44,0.0,1.51
10416.0,1.44,0.0,1.49
10418.0,1.44,0.0,1.5
10420.0,1.44,0.0,1.53
10422.0,1.44,0.25,1.57
10423.0,1.44,0.39,1.59
10425.0,1.44,0.35,1.6
10427.0,1.44,0.55,1.6
10429.0,1.44,0.27,1.6
10431.0,1.44,0.09,1.6
10433.0,1.44,0.07,1.63
10435.0,1.44,0.0,1.64
10437.0,1.44,0.0,1.65
10439.0,1.44,0.0,1.59
10441.0,1.44,0.0,1.54
10443.0,1.44,0.0,1.5
10445.0,1.44,0.0,1.47
10447.0,1.44,0.0,1.46
10449.0,1.44,0.0,1.45
10451.0,1.44,0.0,1.4
10454.0,1.44,0.0,1.4
10456.0,1.44,0.0,1.39
10458.0,1.44,0.0,1.39
10460.0,1.44,0.0,1.38
10462.0,1.44,0.04,1.35
10464.0,1.44,0.44,1.35
10466.0,1.44,0.58,1.35
10467.0,1.44,0.65,1.32
10469.0,1.44,0.93,1.31
10471.0,1.44,0.98,1.29
10473.0,1.44,0.93,1.29
10475.0,1.44,1.08,1.3
10477.0,1.44,1.25,1.3
10479.0,1.44,1.26,1.29
10481.0,1.44,1.5,1.33
10483.0,1.44,1.62,1.34
10485.0,1.44,1.77,1.37
10487.0,1.44,1.86,1.34
10489.0,1.44,1.54,1.29
10491.0,1.44,1.52,1.29
10493.0,1.44,2.03,1.31
10496.0,1.44,2.16,1.32
10498.0,1.44,2.28,1.33
10500.0,1.44,2.58,1.34
10502.0,1.44,2.62,1.35
10504.0,1.44,2.79,1.35
10506.0,1.44,3.23,1.36
10508.0,1.44,3.3,1.37
10509.0,1.44,3.3,1.39
10511.0,1.44,3.3,1.37
10513.0,1.44,3.3,1.36
10515.0,1.44,3.3,1.37
10517.0,1.44,3.14,1.37
10519.0,1.44,2.85,1.37
10521.0,1.44,2.76,1.38
10523.0,1.44,2.65,1.37
10525.0,1.44,2.6,1.37
10527.0,1.44,2.52,1.35
10529.0,1.44,2.45,1.3
10531.0,1.44,2.54,1.27
10533.0,1.44,2.59,1.29
10535.0,1.44,2.55,1.3
10537.0,1.44,2.69,1.31
10540.0,1.44,2.58,1.31
10542.0,1.44,2.57,1.36
10544.0,1.44,2.41,1.39
10546.0,1.44,2.45,1.41
10548.0,1.44,2.47,1.39
10550.0,1.44,2.38,1.35
10552.0,1.44,2.2,1.36
10553.0,1.44,2.12,1.35
10555.0,1.44,2.12,1.36
10557.0,1.44,2.06,1.39
10559.0,1.44,2.24,1.41
10561.0,1.44,2.33,1.43
10563.0,1.44,2.37,1.43
10565.0,1.44,2.45,1.42
10567.0,1.44,2.28,1.38
10569.0,1.44,2.13,1.35
10571.0,1.44,1.87,1.36
10573.0,1.44,1.83,1.35
10575.0,1.44,1.68,1.34
10577.0,1.44,1.71,1.33
10579.0,1.44,1.57,1.33
10582.0,1.44,1.44,1.3
10584.0,1.44,1.3,1.28
10586.0,1.44,1.26,1.24
10588.0,1.44,1.01,1.2
10590.0,1.44,0.98,1.16
10592.0,1.44,1.02,1.17
10594.0,1.44,1.22,1.18
10595.0,1.44,1.24,1.2
10597.0,1.44,1.21,1.22
10599.0,1.44,1.21,1.23
10601.0,1.44,1.35,1.27
10603.0,1.44,1.43,1.3
10605.0,1.44,1.4,1.32
10607.0,1.44,1.54,1.35
10609.0,1.44,1.72,1.36
10611.0,1.44,1.66,1.36
10613.0,1.44,1.58,1.39
10615.0,1.44,1.51,1.39
10617.0,1.44,1.51,1.41
10619.0,1.44,1.42,1.42
10621.0,1.44,1.36,1.42
10624.0,1.44,1.28,1.41
10626.0,1.44,1.3,1.37
10628.0,1.44,1.27,1.26
10630.0,1.44,1.22,1.23
10632.0,1.44,1.31,1.23
10634.0,1.44,1.4,1.22
10636.0,1.44,1.45,1.22
10638.0,1.44,1.25,1.25
10639.0,1.44,1.13,1.3
10641.0,1.44,0.98,1.33
10643.0,1.44,1.0,1.33
10645.0,1.44,1.09,1.33
10647.0,1.44,1.31,1.33
10649.0,1.44,1.37,1.32
10651.0,1.44,1.62,1.3
10653.0,1.44,1.68,1.32
10655.0,1.44,1.66,1.33
10657.0,1.44,1.51,1.35
10659.0,1.44,1.69,1.37
10661.0,1.44,1.76,1.4
10663.0,1.44,1.72,1.44
10665.0,1.44,1.77,1.46
10668.0,1.44,1.77,1.46
10670.0,1.44,1.82,1.47
10672.0,1.44,1.9,1.47
10674.0,1.44,2.05,1.49
10676.0,1.44,2.42,1.53
10678.0,1.44,2.43,1.53
10680.0,1.44,2.36,1.54
10681.0,1.44,2.41,1.56
10683.0,1.44,2.36,1.55
10685.0,1.44,2.36,1.58
10687.0,1.44,2.32,1.61
10689.0,1.44,2.4,1.61
10691.0,1.44,2.48,1.59
10693.0,1.44,2.42,1.58
10695.0,1.44,2.32,1.57
10697.0,1.44,2.27,1.58
10699.0,1.44,2.3,1.61
10701.0,1.44,2.36,1.62
10703.0,1.44,2.43,1.61
10705.0,1.44,2.46,1.59
10707.0,1.44,2.37,1.61
10710.0,1.44,2.54,1.57
10712.0,1.44,2.58,1.55
10714.0,1.44,2.62,1.53
10716.0,1.44,2.63,1.49
10718.0,1.44,2.61,1.48
10720.0,1.44,2.67,1.49
10722.0,1.44,2.79,1.51
10724.0,1.44,2.86,1.5
10725.0,1.44,2.89,1.51
10727.0,1.44,2.88,1.52
10729.0,1.44,3.05,1.5
10731.0,1.44,3.3,1.49
10733.0,1.44,3.3,1.47
10735.0,1.44,3.3,1.48
10737.0,1.44,3.3,1.46
10739.0,1.44,3.3,1.46
10741.0,1.44,3.3,1.46
10743.0,1.44,3.3,1.47
10745.0,1.44,3.24,1.47
10747.0,1.44,3.16,1.45
10749.0,1.44,3.0,1.42
10752.0,1.44,2.9,1.41
10754.0,1.44,2.77,1.41
10756.0,1.44,2.63,1.42
10758.0,1.44,2.52,1.5
10760.0,1.44,2.31,1.53
10762.0,1.44,2.13,1.53
10764.0,1.44,2.07,1.51
10766.0,1.44,1.95,1.47
10768.0,1.44,1.96,1.51
10769.0,1.44,1.91,1.55
10771.0,1.44,2.04,1.55
10773.0,1.44,2.0,1.56
10775.0,1.44,2.12,1.56
10777.0,1.44,2.14,1.55
10779.0,1.44,2.26,1.56
10781.0,1.44,2.04,1.59
10783.0,1.44,2.1,1.58
10785.0,1.44,2.18,1.58
10787.0,1.44,2.13,1.57
10789.0,1.44,2.16,1.53
10791.0,1.44,2.02,1.52
10793.0,1.44,1.92,1.48
10796.0,1.44,1.93,1.49
10798.0,1.44,1.78,1.51
10800.0,1.44,1.85,1.49
10802.0,1.44,1.93,1.5
10804.0,1.44,1.92,1.48
10806.0,1.44,2.03,1.5
10808.0,1.44,1.88,1.53
10810.0,1.44,1.7,1.55
10812.0,1.44,1.46,1.58
10813.0,1.44,1.29,1.61
10815.0,1.44,1.33,1.61
10817.0,1.44,1.35,1.64
10819.0,1.44,1.4,1.66
10821.0,1.44,1.33,1.65
10823.0,1.44,1.3,1.6
10825.0,1.44,1.2,1.57
10827.0,1.44,1.09,1.55
10829.0,1.44,1.11,1.51
10831.0,1.44,1.16,1.48
10833.0,1.44,0.97,1.44
10835.0,1.44,0.86,1.42
10838.0,1.44,0.8,1.45
10840.0,1.44,0.84,1.47
10842.0,1.44,0.77,1.48
10844.0,1.44,0.8,1.51
10846.0,1.44,0.8,1.51
10848.0,1.44,0.66,1.5
10850.0,1.44,0.66,1.48
10852.0,1.44,0.53,1.46
10854.0,1.44,0.58,1.43
10855.0,1.44,0.63,1.39
10857.0,1.44,0.64,1.38
10859.0,1.44,0.69,1.39
10861.0,1.44,0.65,1.39
10863.0,1.44,0.71,1.38
10865.0,1.44,0.66,1.36
10867.0,1.44,0.55,1.39
10869.0,1.44,0.55,1.41
10871.0,1.44,0.5,1.38
10873.0,1.44,0.48,1.36
10875.0,1.44,0.56,1.35
10877.0,1.44,0.59,1.31
10880.0,1.44,0.6,1.31
10882.0,1.44,0.62,1.34
10884.0,1.44,0.61,1.38
10886.0,1.44,0.61,1.37
10888.0,1.44,0.6,1.36
10890.0,1.44,0.58,1.35
10892.0,1.44,0.58,1.32
10894.0,1.44,0.62,1.3
10896.0,1.44,0.66,1.29
10898.0,1.44,0.46,1.27
10899.0,1.44,0.55,1.29
10901.0,1.44,0.6,1.31
10903.0,1.44,0.62,1.3
10905.0,1.44,0.48,1.3
10907.0,1.44,0.24,1.29
10909.0,1.44,0.13,1.3
10911.0,1.44,0.09,1.32
10913.0,1.44,0.02,1.34
10915.0,1.44,0.0,1.34
10917.0,1.44,0.02,1.3
10919.0,1.44,0.16,1.31
10921.0,1.44,0.19,1.34
10924.0,1.44,0.22,1.36
10926.0,1.44,0.25,1.35
10928.0,1.44,0.21,1.36
10930.0,1.44,0.22,1.39
10932.0,1.44,0.24,1.37
10934.0,1.44,0.26,1.35
10936.0,1.44,0.34,1.39
10938.0,1.44,0.42,1.42
10940.0,1.44,0.55,1.44
10942.0,1.44,0.64,1.44
10943.0,1.44,0.62,1.42
10945.0,1.44,0.68,1.43
10947.0,1.44,0.66,1.41
10949.0,1.44,0.67,1.39
10951.0,1.44,0.64,1.33
10953.0,1.44,0.66,1.26
10955.0,1.44,0.66,1.25
10957.0,1.44,0.66,1.26
10959.0,1.44,0.74,1.3
10961.0,1.44,0.85,1.35
10963.0,1.44,0.84,1.38
10966.0,1.44,0.8,1.38
10968.0,1.44,0.85,1.35
10970.0,1.44,0.89,1.32
10972.0,1.44,0.91,1.26
10974.0,1.44,0.93,1.28
10976.0,1.44,1.02,1.34
10978.0,1.44,1.03,1.37
10980.0,1.44,1.02,1.37
10982.0,1.44,1.07,1.39
10984.0,1.44,1.1,1.39
10985.0,1.44,1.1,1.41
10987.0,1.44,1.1,1.44
10989.0,1.44,1.09,1.43
10991.0,1.44,1.21,1.43
10993.0,1.44,1.26,1.44
10995.0,1.44,1.25,1.45
10997.0,1.44,1.25,1.45
10999.0,1.44,1.24,1.48
11001.0,1.44,1.22,1.47
11003.0,1.44,1.23,1.45
11005.0,1.44,1.2,1.43
11008.0,1.44,1.19,1.42
11010.0,1.44,1.05,1.4
11012.0,1.44,0.96,1.4
11014.0,1.44,0.88,1.38
11016.0,1.44,0.9,1.38
11018.0,1.44,0.98,1.38
11020.0,1.44,0.98,1.41
11022.0,1.44,1.03,1.42
11024.0,1.44,1.02,1.41
11026.0,1.44,1.06,1.4
11028.0,1.44,1.1,1.41
11029.0,1.44,1.18,1.42
11031.0,1.44,1.22,1.43
11033.0,1.44,1.17,1.43
11035.0,1.44,1.19,1.43
11037.0,1.44,1.17,1.43
11039.0,1.44,1.16,1.43
11041.0,1.44,1.15,1.43
11043.0,1.44,1.15,1.46
11045.0,1.44,1.2,1.48
11047.0,1.44,1.18,1.5
11049.0,1.44,1.19,1.5
11052.0,1.44,1.25,1.46
11054.0,1.44,1.29,1.44
11056.0,1.44,1.33,1.42
11058.0,1.44,1.33,1.43
11060.0,1.44,1.32,1.45
11062.0,1.44,1.42,1.44
11064.0,1.44,1.44,1.42
11066.0,1.44,1.41,1.41
11068.0,1.44,1.43,1.39
11070.0,1.44,1.45,1.39
11071.0,1.44,1.48,1.39
11073.0,1.44,1.51,1.4
11075.0,1.44,1.55,1.44
11077.0,1.44,1.61,1.46
11079.0,1.44,1.63,1.48
11081.0,1.44,1.65,1.49
11083.0,1.44,1.59,1.48
11085.0,1.44,1.56,1.48
11087.0,1.44,1.58,1.49
11089.0,1.44,1.62,1.48
