time,ch1,ch2,ch3
1.0,1.54,1.46,1.41
3.0,1.54,1.46,1.39
5.0,1.5,1.46,1.4
7.0,1.47,1.46,1.41
9.0,1.47,1.46,1.42
11.0,1.48,1.46,1.41
13.0,1.48,1.46,1.4
15.0,1.48,1.45,1.38
17.0,1.46,1.46,1.39
19.0,1.45,1.45,1.4
21.0,1.44,1.46,1.39
23.0,1.42,1.46,1.38
25.0,1.43,1.46,1.38
27.0,1.45,1.46,1.37
29.0,1.45,1.46,1.36
31.0,1.47,1.46,1.34
33.0,1.46,1.46,1.33
35.0,1.45,1.45,1.35
37.0,1.45,1.45,1.35
39.0,1.46,1.46,1.35
41.0,1.46,1.45,1.35
43.0,1.44,1.46,1.29
45.0,1.49,1.46,1.27
47.0,1.5,1.46,1.29
49.0,1.51,1.46,1.33
51.0,1.53,1.46,1.36
53.0,1.53,1.45,1.35
55.0,1.51,1.45,1.33
57.0,1.49,1.45,1.32
59.0,1.42,1.46,1.32
61.0,1.44,1.45,1.31
63.0,1.52,1.45,1.32
65.0,1.52,1.46,1.31
67.0,1.48,1.46,1.31
69.0,1.48,1.46,1.32
71.0,1.5,1.46,1.34
73.0,1.52,1.46,1.34
75.0,1.5,1.45,1.34
77.0,1.48,1.45,1.35
79.0,1.45,1.45,1.38
81.0,1.47,1.45,1.4
83.0,1.43,1.46,1.4
86.0,1.35,1.46,1.39
87.0,1.36,1.46,1.38
89.0,1.42,1.46,1.4
91.0,1.45,1.46,1.4
93.0,1.47,1.46,1.42
95.0,1.45,1.45,1.44
97.0,1.44,1.45,1.45
99.0,1.42,1.45,1.45
101.0,1.5,1.46,1.44
103.0,1.5,1.46,1.45
105.0,1.48,1.46,1.47
107.0,1.45,1.46,1.49
109.0,1.44,1.46,1.49
111.0,1.47,1.46,1.49
113.0,1.47,1.45,1.48
115.0,1.45,1.45,1.48
117.0,1.47,1.45,1.47
119.0,1.48,1.45,1.44
121.0,1.48,1.45,1.46
123.0,1.47,1.46,1.47
125.0,1.45,1.46,1.46
128.0,1.44,1.46,1.45
129.0,1.45,1.46,1.46
131.0,1.44,1.46,1.47
133.0,1.45,1.45,1.48
135.0,1.5,1.45,1.51
137.0,1.53,1.45,1.53
139.0,1.51,1.45,1.54
141.0,1.45,1.45,1.55
143.0,1.39,1.45,1.57
145.0,1.47,1.45,1.58
147.0,1.48,1.45,1.6
149.0,1.49,1.45,1.61
151.0,1.52,1.45,1.65
153.0,1.55,1.45,1.67
155.0,1.53,1.45,1.66
157.0,1.48,1.45,1.64
159.0,1.45,1.45,1.61
161.0,1.43,1.45,1.58
163.0,1.41,1.45,1.56
165.0,1.44,1.45,1.56
167.0,1.44,1.45,1.53
169.0,1.45,1.45,1.51
171.0,1.48,1.45,1.51
173.0,1.53,1.45,1.55
175.0,1.54,1.45,1.53
177.0,1.51,1.45,1.52
179.0,1.46,1.45,1.51
181.0,1.4,1.45,1.51
183.0,1.37,1.45,1.52
185.0,1.41,1.45,1.51
187.0,1.43,1.45,1.52
189.0,1.43,1.45,1.54
191.0,1.43,1.45,1.54
193.0,1.44,1.45,1.54
195.0,1.45,1.45,1.49
197.0,1.47,1.45,1.45
199.0,1.45,1.45,1.42
201.0,1.42,1.45,1.41
203.0,1.4,1.45,1.37
205.0,1.38,1.45,1.38
207.0,1.36,1.45,1.38
209.0,1.35,1.45,1.38
211.0,1.45,1.45,1.39
214.0,1.46,1.45,2.22
215.0,1.47,1.45,2.5
217.0,1.48,1.45,2.47
219.0,1.48,1.45,2.4
221.0,1.47,1.45,2.33
223.0,1.45,1.45,2.26
225.0,1.42,1.46,1.48
227.0,1.4,1.46,0.96
229.0,1.47,1.45,2.0
231.0,1.5,1.45,2.13
233.0,1.51,1.45,2.08
235.0,1.49,1.45,2.04
237.0,1.46,1.45,1.99
239.0,1.47,1.45,1.95
241.0,1.46,1.45,1.91
243.0,1.44,1.45,1.87
245.0,1.38,1.46,1.84
247.0,1.39,1.46,1.81
249.0,1.49,1.46,1.76
251.0,1.5,1.46,1.72
253.0,1.51,1.45,1.67
256.0,1.48,1.45,1.65
257.0,1.47,1.45,1.64
259.0,1.47,1.45,1.62
261.0,1.44,1.46,1.6
263.0,1.41,1.46,1.59
265.0,1.41,1.46,1.58
267.0,1.43,1.46,1.56
269.0,1.44,1.46,1.54
271.0,1.46,1.46,1.52
273.0,1.47,1.46,1.49
275.0,1.46,1.46,1.48
277.0,1.44,1.46,1.47
279.0,1.39,1.46,1.47
281.0,1.39,1.46,1.46
283.0,1.38,1.46,1.46
285.0,1.35,1.46,1.46
287.0,1.35,1.46,1.45
289.0,1.35,1.46,1.44
291.0,1.37,1.46,1.42
293.0,1.36,1.46,1.4
295.0,1.3,1.46,1.4
297.0,1.44,1.46,1.4
300.0,1.5,1.46,1.4
301.0,1.47,1.46,1.4
303.0,1.44,1.46,1.41
305.0,1.41,1.46,1.41
307.0,1.39,1.46,1.41
309.0,1.4,1.46,1.39
311.0,1.42,1.46,1.38
313.0,1.45,1.46,1.36
315.0,1.45,1.46,1.36
317.0,1.45,1.46,1.37
319.0,1.42,1.46,1.37
321.0,1.43,1.46,1.38
323.0,1.43,1.46,1.38
325.0,1.43,1.46,1.39
327.0,1.4,1.46,1.39
329.0,1.35,1.46,1.38
331.0,1.45,1.46,1.36
333.0,1.51,1.46,1.35
335.0,1.53,1.46,1.36
337.0,1.51,1.46,1.37
339.0,1.49,1.46,1.37
342.0,1.48,1.46,1.38
343.0,1.44,1.46,1.39
345.0,1.41,1.46,1.4
347.0,1.4,1.46,1.4
349.0,1.44,1.46,1.39
351.0,1.45,1.46,1.38
353.0,1.47,1.46,1.37
355.0,1.46,1.46,1.38
357.0,1.44,1.46,1.39
359.0,1.41,1.46,1.4
361.0,1.41,1.46,1.4
363.0,1.42,1.46,1.41
365.0,1.42,1.46,0.0
367.0,1.43,1.46,0.0
369.0,1.46,1.46,0.0
371.0,1.47,1.46,0.0
373.0,1.48,1.46,1.81
375.0,1.46,1.46,0.0
377.0,1.44,1.46,0.0
379.0,1.42,1.46,0.0
381.0,1.34,1.46,0.0
384.0,1.31,1.46,0.0
385.0,1.38,1.46,0.0
387.0,1.42,1.46,0.0
389.0,1.43,1.46,0.0
391.0,1.44,1.46,0.0
393.0,1.45,1.46,0.0
395.0,1.44,1.46,0.0
397.0,1.41,1.46,0.0
399.0,1.44,1.46,0.0
401.0,1.45,1.46,0.0
403.0,1.44,1.46,0.0
405.0,1.43,1.46,0.0
407.0,1.44,1.46,0.09
409.0,1.49,1.46,0.18
411.0,1.51,1.46,0.27
413.0,1.45,1.46,0.38
415.0,1.51,1.46,0.47
417.0,1.57,1.46,0.55
419.0,1.56,1.46,0.62
421.0,1.55,1.46,0.69
423.0,1.52,1.46,0.76
425.0,1.52,1.46,0.83
428.0,1.53,1.46,0.93
429.0,1.55,1.46,0.98
431.0,1.56,1.46,1.06
433.0,1.58,1.46,1.13
435.0,1.58,1.46,1.15
437.0,1.57,1.46,1.2
439.0,1.54,1.46,1.26
441.0,1.54,1.46,1.29
443.0,1.55,1.46,1.31
445.0,1.55,1.46,1.35
447.0,1.54,1.46,1.38
449.0,1.5,1.46,1.44
451.0,1.54,1.46,1.5
453.0,1.57,1.46,1.52
455.0,1.56,1.46,1.55
457.0,1.57,1.46,1.57
459.0,1.56,1.45,1.61
461.0,1.54,1.46,1.63
463.0,1.52,1.46,1.64
465.0,1.44,1.46,1.67
467.0,1.47,1.46,1.68
470.0,1.53,1.46,1.68
471.0,1.54,1.45,1.72
473.0,1.55,1.45,1.74
475.0,1.53,1.45,1.74
477.0,1.52,1.45,1.74
479.0,1.58,1.45,1.75
481.0,1.5,1.45,1.75
483.0,1.49,1.45,1.75
485.0,1.49,1.45,1.78
487.0,1.5,1.45,1.82
489.0,1.54,1.45,1.84
491.0,1.55,1.45,1.85
493.0,1.56,1.45,1.82
495.0,1.54,1.45,1.81
497.0,1.53,1.45,1.8
499.0,1.53,1.45,1.79
501.0,1.5,1.45,1.78
503.0,1.47,1.45,1.8
505.0,1.47,1.45,1.79
507.0,1.45,1.45,1.77
509.0,1.41,1.45,1.76
512.0,1.48,1.45,2.96
513.0,1.53,1.45,3.3
515.0,1.53,1.45,3.3
517.0,1.52,1.45,3.3
519.0,1.49,1.45,3.3
521.0,1.45,1.45,3.3
523.0,1.4,1.45,3.3
525.0,1.4,1.45,3.3
527.0,1.39,1.45,3.3
529.0,1.41,1.45,3.3
531.0,1.45,1.45,3.3
533.0,1.46,1.45,3.3
535.0,1.44,1.45,3.3
537.0,1.42,1.45,3.3
539.0,1.42,1.45,3.3
541.0,1.39,1.45,3.3
543.0,1.41,1.45,3.3
545.0,1.39,1.45,3.3
547.0,1.38,1.45,3.3
549.0,1.4,1.46,3.29
551.0,1.41,1.45,3.15
553.0,1.4,1.45,2.99
556.0,1.39,1.45,2.86
557.0,1.47,1.45,2.74
559.0,1.44,1.45,2.62
561.0,1.41,1.45,2.51
563.0,1.37,1.46,2.41
565.0,1.34,1.46,2.33
567.0,1.32,1.46,2.23
569.0,1.37,1.46,2.13
571.0,1.42,1.46,2.04
573.0,1.45,1.46,1.96
575.0,1.45,1.45,1.9
577.0,1.43,1.46,1.84
579.0,1.4,1.46,1.78
581.0,1.4,1.46,1.73
583.0,1.4,1.46,1.68
585.0,1.42,1.46,1.65
587.0,1.44,1.46,1.18
589.0,1.43,1.46,1.53
591.0,1.46,1.46,1.53
593.0,1.44,1.46,1.5
595.0,1.45,1.46,1.48
598.0,1.45,1.46,1.46
599.0,1.39,1.46,0.0
601.0,1.35,1.46,0.0
603.0,1.35,1.47,0.0
605.0,1.35,1.47,0.0
607.0,1.37,1.47,0.0
609.0,1.39,1.47,0.0
611.0,1.42,1.47,0.0
613.0,1.45,1.46,0.0
615.0,1.4,1.46,0.0
617.0,1.32,1.46,0.0
619.0,1.4,1.46,0.0
621.0,1.42,1.47,0.0
623.0,1.43,1.47,0.0
625.0,1.42,1.47,0.0
627.0,1.41,1.47,0.0
629.0,1.39,1.47,0.0
631.0,1.44,1.47,0.0
633.0,1.46,1.46,0.0
635.0,1.42,1.46,0.0
637.0,1.47,1.46,0.0
640.0,1.48,1.46,0.0
641.0,1.46,1.46,0.0
643.0,1.46,1.46,0.0
645.0,1.44,1.46,0.0
647.0,1.44,1.46,0.09
649.0,1.47,1.46,0.19
651.0,1.52,1.46,0.29
653.0,1.53,1.46,0.38
655.0,1.51,1.46,0.46
657.0,1.5,1.46,0.55
659.0,1.48,1.46,0.63
661.0,1.47,1.46,0.68
663.0,1.48,1.46,0.75
665.0,1.47,1.46,0.81
667.0,1.37,1.46,0.85
669.0,1.42,1.46,0.9
671.0,1.58,1.46,0.99
673.0,1.59,1.46,1.05
675.0,1.55,1.46,1.07
677.0,1.55,1.45,1.11
679.0,1.54,1.46,1.17
681.0,1.54,1.46,1.23
684.0,1.52,1.46,1.25
685.0,1.5,1.46,1.28
687.0,1.48,1.46,1.31
689.0,1.49,1.46,1.34
691.0,1.48,1.46,1.38
693.0,1.47,1.45,1.41
695.0,1.44,1.45,1.44
697.0,1.43,1.45,1.47
699.0,1.41,1.45,1.49
701.0,1.42,1.45,1.49
703.0,1.41,1.45,1.51
705.0,1.36,1.46,1.51
707.0,1.34,1.46,1.56
709.0,1.45,1.45,1.59
711.0,1.48,1.45,1.6
713.0,1.49,1.45,1.61
715.0,1.47,1.45,1.63
717.0,1.45,1.45,1.63
719.0,1.41,1.45,1.62
721.0,1.35,1.45,1.62
723.0,1.36,1.45,1.65
726.0,1.37,1.45,1.66
727.0,1.4,1.45,1.69
729.0,1.4,1.45,1.69
731.0,1.41,1.45,1.7
733.0,1.43,1.45,1.69
735.0,1.47,1.45,1.67
737.0,1.44,1.45,1.68
739.0,1.45,1.45,1.67
741.0,1.5,1.45,1.66
743.0,1.47,1.45,1.67
745.0,1.46,1.45,1.67
747.0,1.45,1.45,1.66
749.0,1.4,1.45,1.67
751.0,1.45,1.45,1.68
753.0,1.43,1.45,1.67
755.0,1.4,1.45,1.66
757.0,1.4,1.45,1.64
759.0,1.41,1.45,1.6
761.0,1.38,1.45,1.58
763.0,1.33,1.45,1.57
765.0,1.27,1.45,1.58
768.0,1.28,1.46,1.62
769.0,1.31,1.46,1.62
771.0,1.32,1.45,1.61
773.0,1.32,1.45,1.62
775.0,1.32,1.45,1.62
777.0,1.35,1.45,1.61
779.0,1.38,1.45,1.58
781.0,1.34,1.45,1.57
783.0,1.3,1.45,1.56
785.0,1.4,1.46,1.56
787.0,1.39,1.46,1.58
789.0,1.4,1.46,1.6
791.0,1.38,1.45,1.61
793.0,1.38,1.45,1.6
795.0,1.38,1.45,1.61
797.0,1.38,1.45,1.63
799.0,1.36,1.45,1.65
801.0,1.34,1.45,1.67
803.0,1.33,1.46,1.67
805.0,1.33,1.46,1.64
807.0,1.33,1.45,1.65
809.0,1.35,1.45,1.66
812.0,1.38,1.45,1.65
813.0,1.41,1.45,1.65
815.0,1.4,1.45,1.63
817.0,1.37,1.45,1.6
819.0,1.37,1.45,1.57
821.0,1.35,1.45,1.58
823.0,1.33,1.46,1.57
825.0,1.29,1.46,1.56
827.0,1.27,1.46,1.56
829.0,1.37,1.45,1.56
831.0,1.43,1.45,1.58
833.0,1.43,1.45,1.56
835.0,1.35,1.45,1.56
837.0,1.34,1.45,1.56
839.0,1.38,1.45,1.55
841.0,1.37,1.45,1.55
843.0,1.34,1.45,1.54
845.0,1.34,1.46,1.52
847.0,1.35,1.46,1.53
849.0,1.35,1.46,1.55
851.0,1.34,1.46,1.54
854.0,1.36,1.45,1.54
855.0,1.39,1.45,1.55
857.0,1.4,1.45,1.54
859.0,1.37,1.45,1.51
861.0,1.38,1.45,1.49
863.0,1.32,1.45,1.5
865.0,1.36,1.46,1.52
867.0,1.39,1.46,1.53
869.0,1.41,1.46,1.54
871.0,1.42,1.45,1.54
873.0,1.41,1.45,1.53
875.0,1.4,1.45,1.52
877.0,1.42,1.45,1.5
879.0,1.41,1.46,1.51
881.0,1.39,1.45,1.51
883.0,1.39,1.46,1.53
885.0,1.39,1.46,1.55
887.0,1.41,1.46,1.55
889.0,1.42,1.46,1.57
891.0,1.45,1.45,1.57
893.0,1.47,1.45,1.57
896.0,1.45,1.45,1.57
897.0,1.43,1.45,1.58
899.0,1.46,1.45,1.59
901.0,1.44,1.46,1.55
903.0,1.4,1.46,1.52
905.0,1.47,1.46,1.52
907.0,1.48,1.46,1.53
909.0,1.48,1.46,1.54
911.0,1.49,1.45,1.55
913.0,1.44,1.45,1.54
915.0,1.41,1.45,1.55
917.0,1.45,1.45,1.58
919.0,1.49,1.45,1.58
921.0,1.5,1.45,1.55
923.0,1.48,1.46,1.52
925.0,1.45,1.46,1.53
927.0,1.48,1.46,1.56
929.0,1.48,1.46,1.6
931.0,1.46,1.45,1.61
933.0,1.45,1.45,1.58
935.0,1.45,1.45,1.57
937.0,1.44,1.45,1.55
940.0,1.45,1.46,1.55
941.0,1.46,1.45,1.57
943.0,1.47,1.46,1.59
945.0,1.46,1.46,1.59
947.0,1.49,1.46,1.57
949.0,1.52,1.46,1.56
951.0,1.55,1.46,1.55
953.0,1.55,1.45,1.53
955.0,1.52,1.45,1.52
957.0,1.5,1.45,1.51
959.0,1.5,1.45,1.5
961.0,1.47,1.45,1.5
963.0,1.51,1.46,1.49
965.0,1.49,1.46,1.46
967.0,1.47,1.46,1.44
969.0,1.55,1.46,1.45
971.0,1.55,1.45,1.47
973.0,1.52,1.45,1.51
975.0,1.51,1.45,1.51
977.0,1.51,1.45,1.54
979.0,1.46,1.45,1.56
982.0,1.41,1.46,1.56
983.0,1.44,1.46,1.58
985.0,1.46,1.46,1.57
987.0,1.45,1.46,1.58
989.0,1.46,1.46,1.61
991.0,1.54,1.45,1.64
993.0,1.52,1.45,1.64
995.0,1.5,1.45,1.62
997.0,1.47,1.45,1.61
999.0,1.39,1.45,1.58
1001.0,1.44,1.45,1.58
1003.0,1.46,1.46,1.59
1005.0,1.44,1.46,1.59
1007.0,1.46,1.46,1.63
1009.0,1.45,1.46,1.66
1011.0,1.47,1.46,1.69
1013.0,1.5,1.45,1.67
1015.0,1.49,1.45,1.66
1017.0,1.46,1.45,1.66
1019.0,1.44,1.45,1.66
1021.0,1.45,1.45,1.66
1024.0,1.45,1.46,1.65
1025.0,1.43,1.46,1.65
1027.0,1.44,1.46,1.66
1029.0,1.44,1.46,1.68
1031.0,1.46,1.46,1.69
1033.0,1.46,1.45,1.67
1035.0,1.47,1.45,1.63
1037.0,1.47,1.45,1.63
1039.0,1.45,1.46,1.63
1041.0,1.36,1.46,1.62
1043.0,1.37,1.46,1.63
1045.0,1.48,1.46,1.65
1047.0,1.53,1.46,1.65
1049.0,1.52,1.46,1.65
1051.0,1.52,1.45,1.65
1053.0,1.52,1.45,1.63
1055.0,1.5,1.45,1.59
1057.0,1.48,1.45,1.55
1059.0,1.45,1.45,1.51
1061.0,1.45,1.46,1.5
1063.0,1.47,1.46,1.5
1065.0,1.46,1.46,1.47
1068.0,1.48,1.46,1.46
1069.0,1.48,1.46,1.46
1071.0,1.48,1.45,1.45
1073.0,1.45,1.45,1.43
1075.0,1.46,1.45,1.44
1077.0,1.47,1.45,1.44
1079.0,1.49,1.45,1.43
1081.0,1.5,1.46,1.44
1083.0,1.49,1.46,1.44
1085.0,1.46,1.46,1.46
1087.0,1.41,1.46,1.46
1089.0,1.52,1.46,1.47
1091.0,1.56,1.45,1.46
1093.0,1.55,1.45,1.45
1095.0,1.52,1.45,1.46
1097.0,1.51,1.46,1.46
1099.0,1.49,1.45,1.48
1101.0,1.47,1.46,1.46
1103.0,1.46,1.46,1.45
1105.0,1.47,1.46,1.44
1107.0,1.48,1.46,1.44
1110.0,1.47,1.46,1.45
1111.0,1.51,1.45,1.45
1113.0,1.53,1.45,1.44
1115.0,1.51,1.45,1.43
1117.0,1.48,1.45,1.44
1119.0,1.48,1.45,1.42
1121.0,1.45,1.46,1.42
1123.0,1.43,1.46,1.43
1125.0,1.38,1.46,1.44
1127.0,1.44,1.46,1.48
1129.0,1.47,1.46,1.5
1131.0,1.48,1.45,1.52
1133.0,1.46,1.45,1.52
1135.0,1.45,1.45,1.52
1137.0,1.44,1.45,1.51
1139.0,1.37,1.45,1.53
1141.0,1.4,1.46,1.52
1143.0,1.45,1.46,1.51
1145.0,1.47,1.46,1.51
1147.0,1.51,1.46,1.53
1149.0,1.56,1.46,1.51
1152.0,1.55,1.45,1.51
1154.0,1.53,1.45,1.51
1155.0,1.53,1.45,1.5
1157.0,1.5,1.45,1.48
1159.0,1.48,1.46,1.46
1161.0,1.43,1.46,1.45
1163.0,1.46,1.46,1.42
1165.0,1.47,1.46,1.42
1167.0,1.5,1.46,1.42
1169.0,1.52,1.46,1.43
1171.0,1.51,1.45,1.44
1173.0,1.49,1.45,1.45
1175.0,1.51,1.45,1.45
1177.0,1.51,1.45,1.45
1179.0,1.5,1.45,1.45
1181.0,1.51,1.46,1.45
1183.0,1.51,1.46,1.44
1185.0,1.51,1.46,1.41
1187.0,1.53,1.46,1.4
1189.0,1.55,1.46,1.4
1191.0,1.53,1.45,1.41
1193.0,1.53,1.45,1.4
1196.0,1.6,1.45,1.39
1197.0,1.61,1.45,1.36
1199.0,1.6,1.46,1.35
1201.0,1.6,1.45,1.35
1203.0,1.59,1.46,1.36
1205.0,1.51,1.46,1.37
1207.0,1.47,1.46,1.37
1209.0,1.54,1.46,1.4
1211.0,1.54,1.45,1.4
1213.0,1.49,1.45,1.38
1215.0,1.49,1.45,1.37
1217.0,1.46,1.45,1.37
1219.0,1.45,1.45,1.35
1221.0,1.44,1.46,1.35
1223.0,1.43,1.46,1.35
1225.0,1.42,1.46,1.35
1227.0,1.44,1.46,1.34
1229.0,1.39,1.46,1.34
1231.0,1.46,1.45,1.36
1233.0,1.51,1.45,1.35
1235.0,1.51,1.45,1.37
1238.0,1.49,1.45,1.34
1239.0,1.47,1.45,1.35
1241.0,1.45,1.46,1.35
1243.0,1.44,1.46,1.34
1245.0,1.42,1.46,1.35
1247.0,1.4,1.46,1.38
1249.0,1.4,1.46,1.38
1251.0,1.43,1.46,1.4
1253.0,1.44,1.45,1.4
1255.0,1.42,1.45,1.4
1257.0,1.39,1.45,1.41
1259.0,1.36,1.46,1.4
1261.0,1.31,1.46,1.39
1263.0,1.4,1.46,1.41
1265.0,1.42,1.46,1.43
1267.0,1.43,1.46,1.45
1269.0,1.42,1.46,1.47
1271.0,1.42,1.46,1.48
1273.0,1.41,1.45,1.45
1275.0,1.4,1.45,1.4
1277.0,1.35,1.45,1.39
1280.0,1.31,1.46,1.39
1282.0,1.27,1.46,1.38
1283.0,1.29,1.46,1.37
1285.0,1.38,1.46,1.37
1287.0,1.39,1.46,1.35
1289.0,1.39,1.46,1.36
1291.0,1.41,1.46,1.37
1293.0,1.42,1.45,1.38
1295.0,1.4,1.45,1.39
1297.0,1.39,1.46,1.38
1299.0,1.35,1.45,1.37
1301.0,1.31,1.46,1.42
1303.0,1.36,1.46,1.43
1305.0,1.4,1.46,1.45
1307.0,1.4,1.46,1.45
1309.0,1.39,1.46,1.45
1311.0,1.43,1.45,1.45
1313.0,1.42,1.45,1.41
1315.0,1.41,1.45,1.39
1317.0,1.42,1.46,1.39
1319.0,1.43,1.46,1.39
1321.0,1.38,1.46,1.4
1324.0,1.33,1.46,1.39
1325.0,1.37,1.46,1.4
1327.0,1.38,1.46,1.42
1329.0,1.39,1.46,1.41
1331.0,1.42,1.46,1.38
1333.0,1.42,1.45,1.38
1335.0,1.44,1.45,1.38
1337.0,1.45,1.46,1.39
1339.0,1.44,1.46,1.39
1341.0,1.44,1.46,1.38
1343.0,1.42,1.46,1.37
1345.0,1.39,1.46,1.38
1347.0,1.41,1.46,1.41
1349.0,1.45,1.46,1.44
1351.0,1.47,1.45,1.44
1353.0,1.44,1.46,1.45
1355.0,1.42,1.45,1.44
1357.0,1.38,1.46,1.43
1359.0,1.36,1.46,1.42
1361.0,1.32,1.46,1.44
1363.0,1.38,1.46,1.44
1366.0,1.35,1.46,1.44
1367.0,1.37,1.46,1.43
1369.0,1.4,1.46,1.42
1371.0,1.43,1.46,1.43
1373.0,1.41,1.45,1.44
1375.0,1.36,1.45,1.43
1377.0,1.32,1.45,1.43
1379.0,1.32,1.45,1.44
1381.0,1.32,1.46,1.45
1383.0,1.32,1.46,1.45
1385.0,1.35,1.46,1.44
1387.0,1.38,1.46,1.45
1389.0,1.39,1.46,1.48
1391.0,1.4,1.45,1.52
1393.0,1.39,1.45,1.51
1395.0,1.38,1.45,1.5
1397.0,1.36,1.46,1.48
1399.0,1.33,1.46,1.45
1401.0,1.29,1.46,1.43
1403.0,1.3,1.46,1.44
1405.0,1.32,1.46,1.46
1408.0,1.35,1.46,1.47
1410.0,1.43,1.46,1.48
1411.0,1.47,1.46,1.51
1413.0,1.45,1.45,1.51
1415.0,1.43,1.45,1.5
1417.0,1.39,1.45,1.48
1419.0,1.36,1.46,1.46
1421.0,1.34,1.46,1.48
1423.0,1.35,1.46,1.48
1425.0,1.36,1.46,1.49
1427.0,1.38,1.46,1.5
1429.0,1.38,1.46,1.51
1431.0,1.41,1.45,1.49
1433.0,1.42,1.45,1.47
1435.0,1.41,1.45,1.46
1437.0,1.4,1.45,1.46
1439.0,1.37,1.45,1.46
1441.0,1.35,1.46,1.45
1443.0,1.37,1.46,1.42
1445.0,1.38,1.46,1.43
1447.0,1.39,1.46,1.45
1449.0,1.4,1.46,1.47
1452.0,1.43,1.46,1.45
1453.0,1.46,1.46,1.45
1455.0,1.44,1.46,1.45
1457.0,1.45,1.46,1.45
1459.0,1.45,1.45,1.45
1461.0,1.41,1.46,1.45
1463.0,1.4,1.46,1.44
1465.0,1.4,1.46,1.45
1467.0,1.41,1.46,1.46
1469.0,1.41,1.46,1.5
1471.0,1.42,1.45,1.52
1473.0,1.4,1.45,1.5
1475.0,1.41,1.46,1.5
1477.0,1.41,1.46,1.48
1479.0,1.41,1.46,1.47
1481.0,1.36,1.46,1.46
1483.0,1.38,1.46,1.43
1485.0,1.34,1.46,1.45
1487.0,1.41,1.46,1.48
1489.0,1.47,1.46,1.52
1491.0,1.47,1.45,1.53
1494.0,1.45,1.45,1.54
1495.0,1.44,1.45,1.54
1497.0,1.42,1.46,1.55
1499.0,1.4,1.46,1.54
1501.0,1.4,1.46,1.53
1503.0,1.38,1.46,1.55
1505.0,1.39,1.46,1.55
1507.0,1.5,1.46,1.53
1509.0,1.56,1.46,1.48
1511.0,1.57,1.45,1.48
1513.0,1.55,1.45,1.48
1515.0,1.53,1.46,1.46
1517.0,1.52,1.45,1.47
1519.0,1.51,1.45,1.48
1521.0,1.5,1.46,1.48
1523.0,1.46,1.46,1.47
1525.0,1.42,1.46,1.49
1527.0,1.45,1.46,1.5
1529.0,1.47,1.46,1.53
1531.0,1.48,1.45,1.52
1533.0,1.5,1.45,1.49
1536.0,1.48,1.45,1.45
1538.0,1.46,1.46,1.46
1539.0,1.44,1.46,1.44
1541.0,1.39,1.46,1.43
1543.0,1.36,1.46,1.41
1545.0,1.39,1.46,1.4
1547.0,1.45,1.46,1.41
1549.0,1.4,1.46,1.4
1551.0,1.34,1.45,1.37
1553.0,1.32,1.45,1.38
1555.0,1.35,1.45,1.41
1557.0,1.35,1.46,1.43
1559.0,1.34,1.46,1.41
1561.0,1.32,1.46,1.4
1563.0,1.32,1.46,1.39
1565.0,1.41,1.46,1.42
1567.0,1.45,1.46,1.44
1569.0,1.48,1.46,1.44
1571.0,1.52,1.45,1.45
1573.0,1.52,1.45,1.45
1575.0,1.54,1.45,1.45
1577.0,1.51,1.45,1.46
1580.0,1.46,1.46,1.45
1581.0,1.37,1.46,1.44
1583.0,1.31,1.46,1.41
1585.0,1.3,1.46,1.41
1587.0,1.35,1.46,1.43
1589.0,1.4,1.46,1.45
1591.0,1.43,1.45,1.43
1593.0,1.39,1.45,1.41
1595.0,1.35,1.45,1.38
1597.0,1.36,1.46,1.36
1599.0,1.42,1.46,1.37
1601.0,1.36,1.46,1.39
1603.0,1.41,1.46,1.39
1605.0,1.37,1.46,1.39
1607.0,1.38,1.46,1.43
1609.0,1.45,1.46,1.46
1611.0,1.47,1.45,1.46
1613.0,1.45,1.45,1.45
1615.0,1.44,1.45,1.44
1617.0,1.42,1.46,1.41
1619.0,1.4,1.46,1.42
1622.0,1.37,1.46,1.43
1623.0,1.36,1.46,1.43
1625.0,1.37,1.46,1.43
1627.0,1.36,1.46,1.43
1629.0,1.39,1.46,1.44
1631.0,1.38,1.45,1.42
1633.0,1.36,1.46,1.42
1635.0,1.33,1.46,1.4
1637.0,1.34,1.46,1.4
1639.0,1.36,1.46,1.38
1641.0,1.38,1.46,1.4
1643.0,1.4,1.46,1.39
1645.0,1.4,1.46,1.38
1647.0,1.41,1.46,1.39
1649.0,1.43,1.46,1.41
1651.0,1.46,1.46,1.39
1653.0,1.48,1.46,1.35
1655.0,1.45,1.45,1.33
1657.0,1.39,1.46,1.33
1659.0,1.38,1.46,1.33
1661.0,1.4,1.46,1.34
1664.0,1.39,1.46,1.34
1666.0,1.4,1.46,1.38
1667.0,1.41,1.46,1.41
1669.0,1.43,1.46,1.42
1671.0,1.4,1.45,1.39
1673.0,1.37,1.45,1.38
1675.0,1.45,1.46,1.38
1677.0,1.46,1.45,1.35
1679.0,1.46,1.46,1.34
1681.0,1.43,1.46,1.33
1683.0,1.41,1.46,1.33
1685.0,1.38,1.46,1.35
1687.0,1.41,1.46,1.35
1689.0,1.43,1.46,1.36
1691.0,1.44,1.46,1.39
1693.0,1.44,1.45,1.42
1695.0,1.47,1.45,1.44
1697.0,1.47,1.45,1.44
1699.0,1.44,1.46,1.44
1701.0,1.43,1.46,1.43
1703.0,1.42,1.46,1.42
1705.0,1.4,1.46,1.42
1708.0,1.43,1.46,1.44
1709.0,1.45,1.46,1.44
1711.0,1.45,1.46,1.44
1713.0,1.44,1.45,1.45
1715.0,1.45,1.46,1.47
1717.0,1.47,1.46,1.47
1719.0,1.45,1.46,1.45
1721.0,1.43,1.46,1.43
1723.0,1.41,1.46,1.45
1725.0,1.41,1.46,1.44
1727.0,1.42,1.46,1.44
1729.0,1.44,1.46,1.47
1731.0,1.45,1.45,1.48
1733.0,1.45,1.45,1.45
1735.0,1.4,1.45,1.44
1737.0,1.35,1.46,1.42
1739.0,1.36,1.46,1.4
1741.0,1.33,1.46,1.4
1743.0,1.26,1.46,1.39
1745.0,1.37,1.46,1.4
1747.0,1.39,1.46,1.4
1750.0,1.38,1.46,1.42
1751.0,1.37,1.46,1.41
1753.0,1.37,1.45,1.42
1755.0,1.35,1.45,1.4
1757.0,1.34,1.45,1.37
1759.0,1.34,1.46,1.34
1761.0,1.35,1.46,1.33
1763.0,1.34,1.46,1.34
1765.0,1.35,1.46,1.38
1767.0,1.41,1.46,1.41
1769.0,1.43,1.46,1.42
1771.0,1.44,1.46,1.42
1773.0,1.43,1.45,1.4
1775.0,1.42,1.46,1.41
1777.0,1.44,1.46,1.42
1779.0,1.44,1.46,1.42
1781.0,1.44,1.46,1.45
1783.0,1.45,1.46,1.46
1785.0,1.43,1.46,1.48
1787.0,1.4,1.46,1.5
1789.0,1.45,1.46,1.5
1792.0,1.45,1.45,1.51
1794.0,1.45,1.45,1.5
1795.0,1.46,1.46,1.52
1797.0,1.46,1.45,1.53
1799.0,1.45,1.46,1.51
1801.0,1.43,1.46,1.5
1803.0,1.43,1.46,1.52
1805.0,1.45,1.46,1.54
1807.0,1.47,1.46,1.55
1809.0,1.43,1.46,1.55
1811.0,1.5,1.45,1.54
1813.0,1.55,1.45,1.55
1815.0,1.52,1.45,1.53
1817.0,1.47,1.46,1.52
1819.0,1.47,1.46,1.5
1821.0,1.47,1.46,1.51
1823.0,1.43,1.46,1.5
1825.0,1.39,1.46,1.5
1827.0,1.44,1.46,1.53
1829.0,1.47,1.46,1.54
1831.0,1.5,1.46,1.54
1833.0,1.49,1.46,1.55
1836.0,1.49,1.45,1.53
1837.0,1.48,1.46,1.52
1839.0,1.48,1.46,1.48
1841.0,1.48,1.46,1.46
1843.0,1.45,1.46,1.45
1845.0,1.47,1.46,1.46
1847.0,1.48,1.46,1.47
1849.0,1.51,1.46,1.5
1851.0,1.52,1.45,1.51
1853.0,1.45,1.45,1.51
1855.0,1.45,1.45,1.48
1857.0,1.5,1.45,1.45
1859.0,1.49,1.46,1.47
1861.0,1.48,1.46,1.48
1863.0,1.44,1.46,1.46
1865.0,1.48,1.46,1.45
1867.0,1.48,1.46,1.45
1869.0,1.49,1.45,1.45
1871.0,1.52,1.45,1.45
1873.0,1.53,1.45,1.47
1875.0,1.51,1.45,1.47
1878.0,1.49,1.45,1.46
1879.0,1.47,1.46,1.43
1881.0,1.45,1.46,1.43
1883.0,1.43,1.46,1.43
1885.0,1.45,1.46,1.47
1887.0,1.47,1.46,1.47
1889.0,1.5,1.46,1.5
1891.0,1.5,1.45,1.53
1893.0,1.5,1.45,1.5
1895.0,1.5,1.45,1.47
1897.0,1.5,1.45,1.46
1899.0,1.49,1.45,1.45
1901.0,1.48,1.46,1.45
1903.0,1.48,1.46,1.46
1905.0,1.5,1.46,1.45
1907.0,1.51,1.46,1.44
1909.0,1.55,1.46,1.43
1911.0,1.54,1.45,1.39
1913.0,1.56,1.45,1.35
1915.0,1.55,1.46,1.33
1917.0,1.56,1.45,1.33
1920.0,1.56,1.46,1.35
1922.0,1.55,1.46,1.34
1923.0,1.52,1.46,1.34
1925.0,1.48,1.46,1.34
1927.0,1.58,1.46,1.34
1929.0,1.58,1.46,1.36
1931.0,1.58,1.45,1.36
1933.0,1.55,1.45,1.37
1935.0,1.5,1.45,1.37
1937.0,1.51,1.46,1.39
1939.0,1.55,1.46,1.37
1941.0,1.51,1.46,1.38
1943.0,1.48,1.46,1.4
1945.0,1.48,1.46,1.41
1947.0,1.47,1.46,1.41
1949.0,1.49,1.45,1.38
1951.0,1.51,1.46,1.39
1953.0,1.48,1.45,1.39
1955.0,1.42,1.45,1.38
1957.0,1.43,1.46,1.39
1959.0,1.43,1.46,1.39
1961.0,1.39,1.46,1.38
1964.0,1.39,1.46,1.38
1965.0,1.42,1.46,1.39
1967.0,1.45,1.46,1.4
1969.0,1.45,1.45,1.42
1971.0,1.45,1.45,1.38
1973.0,1.44,1.45,1.39
1975.0,1.44,1.46,1.39
1977.0,1.45,1.45,1.39
1979.0,1.43,1.46,1.4
1981.0,1.42,1.46,1.41
1983.0,1.42,1.46,1.41
1985.0,1.4,1.46,1.39
1987.0,1.35,1.46,1.41
1989.0,1.44,1.46,1.42
1991.0,1.47,1.45,1.4
1993.0,1.45,1.45,1.39
1995.0,1.43,1.45,1.39
1997.0,1.48,1.46,1.39
1999.0,1.49,1.46,1.36
2001.0,1.47,1.46,1.36
2003.0,1.48,1.46,1.37
2006.0,1.49,1.46,1.38
2007.0,1.48,1.46,1.39
2009.0,1.48,1.45,1.4
2011.0,1.48,1.45,1.4
2013.0,1.48,1.45,1.41
2015.0,1.5,1.45,1.42
2017.0,1.5,1.46,1.45
2019.0,1.48,1.46,1.45
2021.0,1.46,1.46,1.43
2023.0,1.48,1.46,1.39
2025.0,1.51,1.46,1.41
2027.0,1.51,1.46,1.42
2029.0,1.54,1.46,1.44
2031.0,1.55,1.45,1.43
2033.0,1.57,1.45,1.41
2035.0,1.55,1.45,1.42
2037.0,1.55,1.46,1.44
2039.0,1.54,1.46,1.44
2041.0,1.5,1.46,1.46
2043.0,1.47,1.46,1.46
2045.0,1.48,1.46,1.48
2048.0,1.49,1.46,1.48
2050.0,1.53,1.45,1.51
2051.0,1.54,1.46,1.52
2053.0,1.52,1.45,1.51
2055.0,1.47,1.45,1.48
2057.0,1.42,1.46,1.46
2059.0,1.46,1.46,1.45
2061.0,1.46,1.46,1.46
2063.0,1.44,1.46,1.47
2065.0,1.47,1.46,1.48
2067.0,1.48,1.46,1.47
2069.0,1.51,1.45,1.47
2071.0,1.53,1.45,1.48
2073.0,1.5,1.45,1.48
2075.0,1.52,1.45,1.47
2077.0,1.52,1.45,1.46
2079.0,1.5,1.46,1.44
2081.0,1.5,1.46,1.42
2083.0,1.49,1.46,1.45
2085.0,1.49,1.46,1.45
2087.0,1.51,1.46,1.45
2089.0,1.51,1.46,1.47
2092.0,1.5,1.45,1.46
2093.0,1.46,1.45,1.44
2095.0,1.45,1.45,1.44
2097.0,1.45,1.45,1.45
2099.0,1.44,1.46,1.4
2101.0,1.43,1.46,1.4
2103.0,1.43,1.46,1.39
2105.0,1.43,1.46,1.39
2107.0,1.43,1.46,1.42
2109.0,1.46,1.45,1.42
2111.0,1.49,1.45,1.42
2113.0,1.49,1.45,1.39
2115.0,1.47,1.45,1.4
2117.0,1.46,1.46,1.43
2119.0,1.46,1.46,1.45
2121.0,1.44,1.46,1.45
2123.0,1.43,1.46,1.44
2125.0,1.42,1.46,1.44
2127.0,1.4,1.46,1.45
2129.0,1.44,1.45,1.46
2131.0,1.47,1.45,1.44
2134.0,1.47,1.45,1.46
2135.0,1.45,1.46,1.44
2137.0,1.44,1.45,1.42
2139.0,1.43,1.46,1.39
2141.0,1.42,1.46,1.4
2143.0,1.41,1.46,1.39
2145.0,1.42,1.46,1.41
2147.0,1.45,1.46,1.44
2149.0,1.49,1.45,1.45
2151.0,1.47,1.45,1.44
2153.0,1.45,1.45,1.42
2155.0,1.45,1.45,1.43
2157.0,1.46,1.45,1.44
2159.0,1.47,1.46,1.44
2161.0,1.46,1.46,1.45
2163.0,1.44,1.46,1.46
2165.0,1.45,1.46,1.46
2167.0,1.46,1.46,1.44
2169.0,1.48,1.46,1.42
2171.0,1.48,1.45,1.41
2173.0,1.47,1.45,1.4
2176.0,1.44,1.46,1.42
2178.0,1.47,1.46,1.42
2179.0,1.49,1.46,1.42
2181.0,1.48,1.46,1.4
2183.0,1.45,1.46,1.41
2185.0,1.46,1.46,1.43
2187.0,1.44,1.46,1.47
2189.0,1.47,1.46,1.48
2191.0,1.53,1.45,1.46
2193.0,1.5,1.45,1.45
2195.0,1.48,1.45,1.44
2197.0,1.47,1.46,1.43
2199.0,1.46,1.46,1.42
2201.0,1.45,1.46,1.44
2203.0,1.42,1.46,1.45
2205.0,1.45,1.46,1.44
2207.0,1.49,1.46,1.47
2209.0,1.49,1.46,1.48
2211.0,1.47,1.45,1.47
2213.0,1.46,1.45,1.48
2215.0,1.45,1.45,1.49
2217.0,1.43,1.45,1.48
2220.0,1.41,1.46,1.45
2221.0,1.41,1.46,1.46
2223.0,1.4,1.46,1.47
2225.0,1.38,1.46,1.47
2227.0,1.41,1.46,1.46
2229.0,1.43,1.46,1.45
2231.0,1.43,1.45,1.43
2233.0,1.44,1.45,1.42
2235.0,1.44,1.45,1.4
2237.0,1.43,1.46,1.41
2239.0,1.42,1.46,1.39
2241.0,1.4,1.46,1.38
2243.0,1.38,1.46,1.38
2245.0,1.37,1.46,1.41
2247.0,1.39,1.46,1.42
2249.0,1.41,1.45,1.43
2251.0,1.42,1.45,1.39
2253.0,1.42,1.45,1.37
2255.0,1.42,1.45,1.38
2257.0,1.4,1.46,1.38
2259.0,1.33,1.46,1.35
2262.0,1.35,1.46,1.34
2263.0,1.38,1.46,1.36
2265.0,1.41,1.46,1.35
2267.0,1.39,1.46,1.36
2269.0,1.4,1.46,1.39
2271.0,1.38,1.45,1.4
2273.0,1.38,1.45,1.38
2275.0,1.36,1.45,1.4
2277.0,1.36,1.46,1.39
2279.0,1.35,1.46,1.39
2281.0,1.34,1.46,1.38
2283.0,1.33,1.46,1.43
2285.0,1.36,1.46,1.45
2287.0,1.38,1.46,1.46
2289.0,1.39,1.46,1.48
2291.0,1.38,1.45,1.46
2293.0,1.38,1.46,1.46
2295.0,1.39,1.46,1.44
2297.0,1.4,1.46,1.42
2299.0,1.38,1.46,1.4
2301.0,1.36,1.46,1.41
2304.0,1.38,1.46,1.41
2306.0,1.39,1.46,1.42
2307.0,1.38,1.46,1.43
2309.0,1.35,1.46,1.45
2311.0,1.41,1.45,1.46
2313.0,1.43,1.45,1.46
2315.0,1.42,1.45,1.45
2317.0,1.4,1.45,1.46
2319.0,1.39,1.46,1.45
2321.0,1.39,1.46,1.43
2323.0,1.38,1.46,1.44
2325.0,1.41,1.46,1.45
2327.0,1.42,1.46,1.46
2329.0,1.43,1.46,1.49
2331.0,1.42,1.45,1.49
2333.0,1.41,1.45,1.47
2335.0,1.41,1.45,1.45
2337.0,1.4,1.45,1.44
2339.0,1.38,1.46,1.42
2341.0,1.36,1.46,1.41
2343.0,1.36,1.46,1.4
2345.0,1.37,1.46,1.41
2348.0,1.4,1.46,1.42
2349.0,1.49,1.45,1.45
2351.0,1.5,1.45,1.44
2353.0,1.49,1.45,1.42
2355.0,1.47,1.46,1.43
2357.0,1.42,1.45,1.44
2359.0,1.41,1.46,1.43
2361.0,1.42,1.46,1.44
2363.0,1.41,1.46,1.47
2365.0,1.43,1.46,1.48
2367.0,1.44,1.46,1.46
2369.0,1.44,1.46,1.47
2371.0,1.43,1.45,1.48
2373.0,1.44,1.45,1.45
2375.0,1.42,1.45,1.46
2377.0,1.4,1.45,1.45
2379.0,1.37,1.46,1.43
2381.0,1.39,1.46,1.41
2383.0,1.4,1.46,1.42
2385.0,1.41,1.46,1.44
2387.0,1.37,1.46,1.44
2390.0,1.35,1.46,1.44
2391.0,1.48,1.45,1.46
2393.0,1.51,1.45,1.46
2395.0,1.47,1.46,1.47
2397.0,1.44,1.46,1.46
2399.0,1.47,1.46,1.47
2401.0,1.47,1.46,1.47
2403.0,1.48,1.46,1.48
2405.0,1.54,1.46,1.48
2407.0,1.54,1.46,1.49
2409.0,1.52,1.45,1.49
2411.0,1.49,1.45,1.49
2413.0,1.47,1.45,1.48
2415.0,1.44,1.45,1.47
2417.0,1.44,1.46,1.46
2419.0,1.44,1.46,1.45
2421.0,1.42,1.46,1.44
2423.0,1.42,1.46,1.44
2425.0,1.43,1.46,1.47
2427.0,1.41,1.46,1.48
2429.0,1.4,1.45,1.51
2432.0,1.4,1.45,1.52
2434.0,1.4,1.45,1.51
2435.0,1.45,1.46,1.49
2437.0,1.46,1.46,1.46
2439.0,1.46,1.46,1.46
2441.0,1.47,1.46,1.48
2443.0,1.46,1.46,1.49
2445.0,1.45,1.46,1.47
2447.0,1.48,1.46,1.46
2449.0,1.48,1.45,1.48
2451.0,1.47,1.45,1.49
2453.0,1.48,1.45,1.5
2455.0,1.48,1.45,1.5
2457.0,1.46,1.45,1.49
2459.0,1.44,1.46,1.51
2461.0,1.43,1.46,1.53
2463.0,1.43,1.46,1.54
2465.0,1.47,1.46,1.53
2467.0,1.5,1.46,1.55
2469.0,1.51,1.46,1.58
2471.0,1.5,1.45,1.58
2473.0,1.51,1.45,1.55
2476.0,1.49,1.46,1.53
2477.0,1.48,1.46,1.52
2479.0,1.49,1.46,1.52
2481.0,1.48,1.46,1.48
2483.0,1.48,1.46,1.46
2485.0,1.5,1.46,1.46
2487.0,1.53,1.46,1.47
2489.0,1.51,1.45,1.49
2491.0,1.49,1.45,1.51
2493.0,1.47,1.45,1.53
2495.0,1.45,1.45,1.53
2497.0,1.46,1.45,1.51
2499.0,1.48,1.46,1.5
2501.0,1.47,1.46,1.5
2503.0,1.45,1.46,1.5
2505.0,1.45,1.46,1.49
2507.0,1.45,1.46,1.51
2509.0,1.45,1.45,1.49
2511.0,1.42,1.45,1.46
2513.0,1.42,1.45,1.45
2515.0,1.43,1.45,1.41
2518.0,1.43,1.46,1.42
2519.0,1.4,1.46,1.4
2521.0,1.37,1.46,1.38
2523.0,1.36,1.46,1.41
2525.0,1.37,1.46,1.45
2527.0,1.45,1.46,1.45
2529.0,1.45,1.45,1.44
2531.0,1.42,1.45,1.46
2533.0,1.53,1.45,1.48
2535.0,1.54,1.45,1.48
2537.0,1.51,1.45,1.46
2539.0,1.5,1.46,1.41
2541.0,1.48,1.46,1.37
2543.0,1.45,1.46,1.37
2545.0,1.45,1.46,1.39
2547.0,1.45,1.46,1.39
2549.0,1.46,1.46,1.39
2551.0,1.46,1.45,1.38
2553.0,1.45,1.45,1.37
2555.0,1.45,1.45,1.36
2557.0,1.44,1.46,1.35
2560.0,1.43,1.46,1.34
2562.0,1.43,1.46,1.33
2563.0,1.42,1.46,1.32
2565.0,1.43,1.46,1.34
2567.0,1.49,1.46,1.34
2569.0,1.53,1.45,1.36
2571.0,1.54,1.45,1.39
2573.0,1.54,1.45,1.38
2575.0,1.5,1.45,1.4
2577.0,1.49,1.45,1.4
2579.0,1.53,1.46,1.37
2581.0,1.54,1.46,1.35
2583.0,1.5,1.46,1.36
2585.0,1.46,1.46,1.42
2587.0,1.57,1.46,1.46
2589.0,1.61,1.45,1.45
2591.0,1.59,1.45,1.45
2593.0,1.55,1.45,1.45
2595.0,1.52,1.45,1.45
2597.0,1.49,1.46,1.46
2599.0,1.46,1.46,1.46
2601.0,1.42,1.46,1.46
2604.0,1.39,1.46,1.45
2605.0,1.4,1.46,1.44
2607.0,1.41,1.46,1.48
2609.0,1.4,1.46,1.47
2611.0,1.38,1.45,1.49
2613.0,1.41,1.45,1.48
2615.0,1.41,1.45,1.49
2617.0,1.39,1.46,1.47
2619.0,1.38,1.46,1.46
2621.0,1.35,1.46,1.45
2623.0,1.35,1.46,1.43
2625.0,1.35,1.46,1.45
2627.0,1.35,1.46,1.46
2629.0,1.33,1.45,1.44
2631.0,1.31,1.45,1.44
2633.0,1.28,1.45,1.42
2635.0,1.31,1.46,1.4
2637.0,1.34,1.46,1.37
2639.0,1.35,1.46,1.36
2641.0,1.37,1.46,1.37
2643.0,1.37,1.46,1.39
2646.0,1.35,1.46,1.41
2648.0,1.37,1.46,1.42
2649.0,1.39,1.45,1.43
2651.0,1.42,1.45,1.4
2653.0,1.45,1.45,1.4
2655.0,1.41,1.45,1.4
2657.0,1.4,1.46,1.38
2659.0,1.48,1.46,1.37
2661.0,1.47,1.46,1.36
2663.0,1.49,1.46,1.37
2665.0,1.49,1.46,1.35
2667.0,1.5,1.46,1.37
2669.0,1.5,1.45,1.38
2671.0,1.47,1.45,1.39
2673.0,1.46,1.45,1.41
2675.0,1.51,1.45,1.41
2677.0,1.49,1.46,1.4
2679.0,1.45,1.46,1.4
2681.0,1.44,1.46,1.42
2683.0,1.43,1.46,1.44
2685.0,1.45,1.46,1.44
2688.0,1.47,1.46,1.46
2690.0,1.47,1.45,1.46
2691.0,1.42,1.45,1.47
2693.0,1.38,1.45,1.47
2695.0,1.4,1.45,1.46
2697.0,1.46,1.46,1.42
2699.0,1.42,1.45,1.4
2701.0,1.37,1.46,1.41
2703.0,1.35,1.46,1.37
2705.0,1.34,1.46,1.34
2707.0,1.33,1.46,1.36
2709.0,1.32,1.45,1.35
2711.0,1.32,1.45,1.35
2713.0,1.34,1.46,1.37
2715.0,1.33,1.46,1.36
2717.0,1.34,1.46,1.38
2719.0,1.34,1.46,1.39
2721.0,1.32,1.46,1.39
2723.0,1.33,1.46,1.4
2725.0,1.34,1.46,1.4
2727.0,1.33,1.46,1.42
2729.0,1.37,1.45,1.44
2732.0,1.39,1.45,1.45
2733.0,1.38,1.45,1.45
2735.0,1.39,1.46,1.43
2737.0,1.37,1.46,1.41
2739.0,1.33,1.46,1.41
2741.0,1.42,1.46,1.4
2743.0,1.41,1.46,1.4
2745.0,1.41,1.46,1.37
2747.0,1.44,1.46,1.38
2749.0,1.45,1.45,1.38
2751.0,1.44,1.45,1.37
2753.0,1.4,1.45,1.36
2755.0,1.39,1.45,1.36
2757.0,1.39,1.46,1.37
2759.0,1.42,1.46,1.36
2761.0,1.45,1.46,1.33
2763.0,1.46,1.46,1.33
2765.0,1.45,1.46,1.37
2767.0,1.46,1.46,1.37
2769.0,1.47,1.46,1.35
2771.0,1.47,1.45,1.36
2774.0,1.47,1.45,1.35
2776.0,1.48,1.45,1.35
2777.0,1.54,1.45,1.35
2779.0,1.58,1.46,1.32
2781.0,1.57,1.46,1.33
2783.0,1.58,1.46,1.34
2785.0,1.56,1.46,1.34
2787.0,1.51,1.46,1.33
2789.0,1.5,1.45,1.32
2791.0,1.51,1.45,1.32
2793.0,1.49,1.45,1.33
2795.0,1.45,1.46,1.34
2797.0,1.41,1.45,1.33
2799.0,1.39,1.46,1.34
2801.0,1.36,1.46,1.36
2803.0,1.35,1.46,1.41
2805.0,1.35,1.46,1.44
2807.0,1.36,1.46,1.48
2809.0,1.37,1.45,1.48
2811.0,1.35,1.45,1.44
2813.0,1.35,1.45,1.43
2816.0,1.35,1.45,1.43
2818.0,1.3,1.46,1.43
2819.0,1.29,1.46,1.44
2821.0,1.37,1.46,1.43
2823.0,1.41,1.46,1.46
2825.0,1.4,1.46,1.47
2827.0,1.39,1.46,1.48
2829.0,1.39,1.45,1.5
2831.0,1.4,1.45,1.54
2833.0,1.37,1.45,1.55
2835.0,1.35,1.46,1.55
2837.0,1.36,1.46,1.52
2839.0,1.38,1.46,1.51
2841.0,1.39,1.46,1.48
2843.0,1.41,1.46,1.49
2845.0,1.42,1.46,1.48
2847.0,1.46,1.46,1.45
2849.0,1.5,1.45,1.42
2851.0,1.53,1.45,1.37
2853.0,1.53,1.45,1.35
2855.0,1.51,1.45,1.37
2857.0,1.48,1.46,1.35
2860.0,1.45,1.46,1.39
2861.0,1.36,1.46,1.4
2863.0,1.44,1.46,1.37
2865.0,1.49,1.46,1.35
2867.0,1.51,1.46,1.38
2869.0,1.5,1.45,1.41
2871.0,1.46,1.45,1.4
2873.0,1.45,1.45,1.41
2875.0,1.47,1.46,1.42
2877.0,1.47,1.46,1.42
2879.0,1.42,1.46,1.41
2881.0,1.42,1.46,1.4
2883.0,1.44,1.46,1.42
2885.0,1.45,1.46,1.45
2887.0,1.46,1.46,1.47
2889.0,1.45,1.45,1.47
2891.0,1.43,1.45,1.49
2893.0,1.44,1.45,1.51
2895.0,1.42,1.45,1.51
2897.0,1.35,1.46,1.48
2899.0,1.42,1.46,1.47
2902.0,1.41,1.46,1.47
2904.0,1.41,1.46,1.47
2905.0,1.4,1.46,1.48
2907.0,1.4,1.46,1.48
2909.0,1.41,1.46,1.47
2911.0,1.35,1.45,1.44
2913.0,1.31,1.45,1.43
2915.0,1.34,1.46,1.42
2917.0,1.33,1.46,1.41
2919.0,1.31,1.46,1.44
2921.0,1.29,1.46,1.44
2923.0,1.31,1.46,1.49
2925.0,1.31,1.46,1.5
2927.0,1.35,1.46,1.5
2929.0,1.35,1.45,1.49
2931.0,1.31,1.45,1.48
2933.0,1.35,1.46,1.47
2935.0,1.36,1.46,1.46
2937.0,1.35,1.46,1.44
2939.0,1.34,1.46,1.43
2941.0,1.33,1.46,1.39
2944.0,1.33,1.46,1.4
2946.0,1.37,1.46,1.4
2947.0,1.39,1.46,1.4
2949.0,1.38,1.46,1.42
2951.0,1.39,1.45,1.41
2953.0,1.37,1.46,1.4
2955.0,1.3,1.46,1.41
2957.0,1.42,1.46,1.42
2959.0,1.39,1.46,1.44
2961.0,1.36,1.46,1.46
2963.0,1.39,1.46,1.47
2965.0,1.44,1.46,1.49
2967.0,1.48,1.46,1.51
2969.0,1.48,1.45,1.5
2971.0,1.51,1.46,1.49
2973.0,1.5,1.46,1.49
2975.0,1.49,1.46,1.47
2977.0,1.46,1.46,1.46
2979.0,1.45,1.46,1.47
2981.0,1.44,1.46,1.46
2983.0,1.46,1.46,1.46
2985.0,1.49,1.46,1.48
2988.0,1.5,1.46,1.46
2989.0,1.49,1.46,1.45
2991.0,1.46,1.45,1.47
2993.0,1.48,1.45,1.48
2995.0,1.49,1.46,1.46
2997.0,1.46,1.46,1.47
2999.0,1.49,1.46,1.46
3001.0,1.5,1.46,1.47
3003.0,1.5,1.46,1.47
3005.0,1.46,1.46,1.47
3007.0,1.47,1.46,1.5
3009.0,1.52,1.45,1.49
3011.0,1.54,1.45,1.48
3013.0,1.52,1.45,1.47
3015.0,1.52,1.46,1.51
3017.0,1.51,1.46,1.55
3019.0,1.52,1.46,1.55
3021.0,1.47,1.46,1.54
3023.0,1.43,1.46,1.57
3025.0,1.43,1.46,1.59
3027.0,1.45,1.46,1.6
3030.0,1.45,1.45,1.61
3032.0,1.45,1.46,1.62
3033.0,1.45,1.46,1.59
3035.0,1.42,1.46,1.58
3037.0,1.41,1.46,1.56
3039.0,1.39,1.46,1.55
3041.0,1.36,1.46,1.51
3043.0,1.35,1.46,1.51
3045.0,1.38,1.46,1.51
3047.0,1.39,1.46,1.51
3049.0,1.4,1.45,1.51
3051.0,1.42,1.45,1.46
3053.0,1.45,1.46,1.39
3055.0,1.48,1.46,1.37
3057.0,1.44,1.46,1.36
3059.0,1.36,1.46,1.35
3061.0,1.37,1.46,1.36
3063.0,1.43,1.46,1.39
3065.0,1.42,1.46,1.42
3067.0,1.43,1.46,1.43
3069.0,1.45,1.46,1.42
3072.0,1.45,1.46,1.45
3074.0,1.43,1.45,1.45
3075.0,1.42,1.46,1.42
3077.0,1.4,1.46,1.41
3079.0,1.38,1.46,1.42
3081.0,1.32,1.46,1.39
3083.0,1.32,1.46,1.38
3085.0,1.37,1.46,1.4
3087.0,1.39,1.46,1.4
3089.0,1.41,1.45,1.42
3091.0,1.4,1.45,1.41
3093.0,1.4,1.45,1.38
3095.0,1.4,1.45,1.37
3097.0,1.4,1.46,1.36
3099.0,1.4,1.46,1.35
3101.0,1.36,1.46,1.35
3103.0,1.35,1.46,1.38
3105.0,1.47,1.46,1.39
3107.0,1.5,1.46,1.4
3109.0,1.46,1.45,1.39
3111.0,1.42,1.45,1.39
3113.0,1.45,1.46,1.38
3116.0,1.45,1.46,1.39
3117.0,1.4,1.46,1.38
3119.0,1.42,1.46,1.45
3121.0,1.41,1.46,1.5
3123.0,1.42,1.46,1.52
3125.0,1.43,1.46,1.5
3127.0,1.46,1.46,1.51
3129.0,1.47,1.46,1.51
3131.0,1.48,1.46,1.5
3133.0,1.52,1.46,1.51
3135.0,1.51,1.45,1.45
3137.0,1.5,1.46,1.43
3139.0,1.5,1.46,1.45
3141.0,1.46,1.46,1.46
3143.0,1.46,1.46,1.46
3145.0,1.47,1.46,1.47
3147.0,1.58,1.46,1.47
3149.0,1.59,1.45,1.45
3151.0,1.55,1.45,1.44
3153.0,1.52,1.46,1.38
3155.0,1.47,1.46,1.37
3158.0,1.38,1.46,1.35
3160.0,1.33,1.46,1.34
3161.0,1.32,1.46,1.33
3163.0,1.3,1.46,1.33
3165.0,1.27,1.46,1.35
3167.0,1.32,1.46,1.37
3169.0,1.37,1.45,1.38
3171.0,1.37,1.46,1.37
3173.0,1.37,1.45,1.35
3175.0,1.36,1.46,1.35
3177.0,1.37,1.46,1.36
3179.0,1.39,1.46,1.35
3181.0,1.37,1.46,1.34
3183.0,1.35,1.46,1.34
3185.0,1.39,1.46,1.36
3187.0,1.49,1.46,1.36
3189.0,1.45,1.45,1.36
3191.0,1.45,1.45,1.34
3193.0,1.49,1.46,1.34
3195.0,1.48,1.46,1.36
3197.0,1.45,1.46,1.36
3200.0,1.43,1.46,1.36
3202.0,1.45,1.46,1.38
3203.0,1.49,1.46,1.41
3205.0,1.51,1.46,1.41
3207.0,1.51,1.46,1.44
3209.0,1.51,1.46,1.43
3211.0,1.5,1.46,1.41
3213.0,1.5,1.45,1.43
3215.0,1.48,1.46,1.49
3217.0,1.46,1.46,1.52
3219.0,1.46,1.46,1.53
3221.0,1.46,1.46,1.52
3223.0,1.47,1.46,1.53
3225.0,1.48,1.46,1.55
3227.0,1.5,1.46,1.54
3229.0,1.48,1.45,1.52
3231.0,1.47,1.45,1.52
3233.0,1.47,1.46,1.5
3235.0,1.42,1.46,1.5
3237.0,1.53,1.46,1.48
3239.0,1.52,1.46,1.48
3241.0,1.5,1.46,1.49
3244.0,1.5,1.46,1.49
3245.0,1.52,1.46,1.48
3247.0,1.55,1.46,1.48
3249.0,1.53,1.46,1.48
3251.0,1.51,1.45,1.47
3253.0,1.5,1.45,1.45
3255.0,1.49,1.46,1.45
3257.0,1.47,1.46,1.45
3259.0,1.48,1.46,1.45
3261.0,1.47,1.46,1.45
3263.0,1.48,1.46,1.48
3265.0,1.52,1.46,1.5
3267.0,1.58,1.46,1.49
3269.0,1.61,1.46,1.5
3271.0,1.6,1.45,1.47
3273.0,1.57,1.45,1.44
3275.0,1.56,1.46,1.41
3277.0,1.52,1.46,1.39
3279.0,1.52,1.46,1.38
3281.0,1.48,1.46,1.39
3283.0,1.55,1.46,1.41
3286.0,1.54,1.46,1.44
3288.0,1.54,1.45,1.46
3289.0,1.51,1.46,1.44
3291.0,1.49,1.46,1.43
3293.0,1.48,1.45,1.42
3295.0,1.49,1.46,1.41
3297.0,1.48,1.46,1.4
3299.0,1.48,1.46,1.39
3301.0,1.46,1.46,1.37
3303.0,1.41,1.46,1.37
3305.0,1.4,1.46,1.38
3307.0,1.49,1.45,1.4
3309.0,1.51,1.46,1.39
3311.0,1.55,1.45,1.4
3313.0,1.54,1.46,1.42
3315.0,1.52,1.46,1.45
3317.0,1.48,1.46,1.45
3319.0,1.45,1.46,1.44
3321.0,1.46,1.46,1.45
3323.0,1.48,1.46,1.53
3325.0,1.49,1.46,1.55
3328.0,1.48,1.46,1.57
3330.0,1.46,1.46,1.56
3331.0,1.45,1.45,1.54
3333.0,1.45,1.46,1.54
3335.0,1.43,1.46,1.55
3337.0,1.41,1.46,1.53
3339.0,1.41,1.46,1.51
3341.0,1.41,1.46,1.49
3343.0,1.43,1.46,1.49
3345.0,1.44,1.46,1.51
3347.0,1.39,1.46,1.52
3349.0,1.42,1.45,1.5
3351.0,1.44,1.45,1.49
3353.0,1.42,1.46,1.49
3355.0,1.41,1.46,1.48
3357.0,1.4,1.46,1.46
3359.0,1.43,1.46,1.48
3361.0,1.45,1.46,1.49
3363.0,1.41,1.46,1.49
3365.0,1.42,1.46,1.45
3367.0,1.39,1.46,1.44
3369.0,1.45,1.46,1.43
3372.0,1.49,1.45,1.39
3373.0,1.46,1.46,1.36
3375.0,1.44,1.46,1.36
3377.0,1.43,1.46,1.37
3379.0,1.42,1.46,1.37
3381.0,1.43,1.46,1.37
3383.0,1.45,1.46,1.38
3385.0,1.45,1.46,1.37
3387.0,1.45,1.46,1.39
3389.0,1.45,1.45,1.4
3391.0,1.43,1.45,1.4
3393.0,1.4,1.45,1.41
3395.0,1.4,1.45,1.41
3397.0,1.35,1.46,1.4
3399.0,1.35,1.46,1.4
3401.0,1.34,1.46,1.43
3403.0,1.35,1.46,1.5
3405.0,1.32,1.46,1.54
3407.0,1.28,1.46,1.56
3409.0,1.37,1.46,1.56
3411.0,1.38,1.45,1.58
3414.0,1.38,1.46,1.58
3416.0,1.39,1.46,1.55
3417.0,1.4,1.46,1.52
3419.0,1.39,1.46,1.48
3421.0,1.34,1.46,1.48
3423.0,1.37,1.46,1.49
3425.0,1.41,1.46,1.51
3427.0,1.41,1.45,1.52
3429.0,1.41,1.45,1.49
3431.0,1.41,1.46,1.47
3433.0,1.37,1.45,1.44
3435.0,1.39,1.45,1.43
3437.0,1.42,1.46,1.42
3439.0,1.41,1.46,1.4
3441.0,1.41,1.46,1.41
3443.0,1.42,1.46,1.4
3445.0,1.43,1.46,1.37
3447.0,1.45,1.45,1.4
3449.0,1.44,1.45,1.39
3451.0,1.43,1.45,1.37
3453.0,1.41,1.46,1.35
3456.0,1.38,1.46,1.33
3458.0,1.38,1.46,1.3
3459.0,1.32,1.46,1.32
3461.0,1.39,1.46,1.32
3463.0,1.5,1.46,1.35
3465.0,1.49,1.46,1.4
3467.0,1.48,1.45,1.42
3469.0,1.46,1.45,1.43
3471.0,1.44,1.46,1.43
3473.0,1.39,1.46,1.44
3475.0,1.4,1.45,1.44
3477.0,1.38,1.46,1.42
3479.0,1.39,1.46,1.43
3481.0,1.38,1.46,1.42
3483.0,1.38,1.46,1.4
3485.0,1.39,1.46,1.41
3487.0,1.43,1.45,1.45
3489.0,1.39,1.45,1.47
3491.0,1.38,1.45,1.48
3493.0,1.34,1.45,1.47
3495.0,1.26,1.46,1.48
3497.0,1.41,1.46,1.53
3500.0,1.45,1.46,1.54
3501.0,1.45,1.46,1.52
3503.0,1.45,1.46,1.51
3505.0,1.41,1.46,1.52
3507.0,1.43,1.45,1.54
3509.0,1.46,1.45,1.55
3511.0,1.45,1.45,1.55
3513.0,1.43,1.46,1.53
3515.0,1.4,1.46,1.53
3517.0,1.39,1.46,1.53
3519.0,1.38,1.46,1.53
3521.0,1.38,1.46,1.52
3523.0,1.42,1.46,1.53
3525.0,1.45,1.46,1.54
3527.0,1.46,1.46,1.54
3529.0,1.45,1.45,1.52
3531.0,1.43,1.45,1.5
3533.0,1.46,1.46,1.48
3535.0,1.43,1.46,1.49
3537.0,1.39,1.46,1.47
3539.0,1.47,1.46,1.45
3542.0,1.46,1.46,1.45
3544.0,1.42,1.46,1.45
3545.0,1.35,1.46,1.45
3547.0,1.32,1.46,1.45
3549.0,1.29,1.45,1.47
3551.0,1.3,1.45,1.47
3553.0,1.31,1.45,1.46
3555.0,1.32,1.46,1.47
3557.0,1.3,1.46,1.48
3559.0,1.31,1.46,1.48
3561.0,1.32,1.46,1.48
3563.0,1.34,1.46,1.49
3565.0,1.33,1.46,1.46
3567.0,1.38,1.46,1.45
3569.0,1.39,1.45,1.42
3571.0,1.37,1.45,1.42
3573.0,1.37,1.45,1.41
3575.0,1.39,1.46,1.42
3577.0,1.37,1.46,1.44
3579.0,1.37,1.46,1.46
3581.0,1.41,1.46,1.47
3584.0,1.42,1.46,1.45
3586.0,1.4,1.46,1.46
3587.0,1.39,1.46,1.45
3589.0,1.42,1.46,1.44
3591.0,1.43,1.45,1.44
3593.0,1.38,1.45,1.41
3595.0,1.37,1.45,1.41
3597.0,1.46,1.46,1.38
3599.0,1.44,1.46,1.37
3601.0,1.41,1.46,1.37
3603.0,1.45,1.46,1.37
3605.0,1.5,1.46,1.42
3607.0,1.51,1.45,1.45
3609.0,1.47,1.45,1.45
3611.0,1.45,1.45,1.48
3613.0,1.45,1.45,1.51
3615.0,1.46,1.46,1.48
3617.0,1.45,1.46,1.48
3619.0,1.43,1.46,1.48
3621.0,1.41,1.46,1.5
3623.0,1.43,1.46,1.5
3625.0,1.47,1.46,1.51
3628.0,1.45,1.45,1.5
3629.0,1.43,1.45,1.48
3631.0,1.49,1.46,1.45
3633.0,1.45,1.46,1.41
3635.0,1.44,1.46,1.38
3637.0,1.49,1.46,1.39
3639.0,1.45,1.46,1.42
3641.0,1.43,1.46,1.4
3643.0,1.44,1.46,1.41
3645.0,1.48,1.46,1.44
3647.0,1.48,1.45,1.46
3649.0,1.46,1.45,1.45
3651.0,1.45,1.45,1.46
3653.0,1.49,1.45,1.45
3655.0,1.49,1.46,1.44
3657.0,1.48,1.46,1.43
3659.0,1.4,1.46,1.4
3661.0,1.43,1.46,1.4
3663.0,1.5,1.46,1.42
3665.0,1.52,1.46,1.45
3667.0,1.52,1.45,1.41
3670.0,1.5,1.45,1.36
3672.0,1.49,1.45,1.36
3673.0,1.48,1.45,1.37
3675.0,1.46,1.46,1.35
3677.0,1.45,1.46,1.32
3679.0,1.46,1.46,1.3
3681.0,1.47,1.46,1.32
3683.0,1.47,1.46,1.37
3685.0,1.5,1.46,1.38
3687.0,1.5,1.45,1.39
3689.0,1.48,1.45,1.39
3691.0,1.47,1.45,1.37
3693.0,1.45,1.45,1.35
3695.0,1.42,1.46,1.36
3697.0,1.43,1.46,1.35
3699.0,1.44,1.46,1.35
3701.0,1.4,1.46,1.37
3703.0,1.43,1.46,1.38
3705.0,1.5,1.46,1.38
3707.0,1.55,1.46,1.4
3709.0,1.53,1.45,1.44
3712.0,1.51,1.45,1.46
3714.0,1.5,1.45,1.48
3715.0,1.49,1.46,1.48
3717.0,1.51,1.46,1.46
3719.0,1.52,1.46,1.46
3721.0,1.52,1.46,1.47
3723.0,1.52,1.46,1.48
3725.0,1.53,1.46,1.47
3727.0,1.55,1.45,1.45
3729.0,1.55,1.46,1.44
3731.0,1.54,1.46,1.41
3733.0,1.54,1.45,1.38
3735.0,1.51,1.46,1.38
3737.0,1.46,1.46,1.4
3739.0,1.45,1.46,1.41
3741.0,1.47,1.46,1.41
3743.0,1.47,1.46,1.39
3745.0,1.47,1.46,1.41
3747.0,1.48,1.45,1.41
3749.0,1.4,1.45,1.43
3751.0,1.45,1.45,1.43
3753.0,1.49,1.45,1.43
3756.0,1.47,1.46,1.42
3757.0,1.47,1.46,1.42
3759.0,1.47,1.46,1.44
3761.0,1.48,1.46,1.46
3763.0,1.5,1.46,1.49
3765.0,1.5,1.46,1.53
3767.0,1.48,1.45,1.54
3769.0,1.45,1.45,1.55
3771.0,1.47,1.45,1.57
3773.0,1.47,1.45,1.6
3775.0,1.45,1.46,1.6
3777.0,1.45,1.46,1.59
3779.0,1.43,1.46,1.57
3781.0,1.43,1.46,1.56
3783.0,1.35,1.46,1.55
3785.0,1.5,1.46,1.54
3787.0,1.55,1.46,1.54
3789.0,1.49,1.46,1.53
3791.0,1.5,1.45,1.52
3793.0,1.5,1.46,1.54
3795.0,1.47,1.46,1.55
3798.0,1.46,1.46,1.49
3800.0,1.48,1.46,1.45
3801.0,1.49,1.46,1.46
3803.0,1.48,1.46,1.46
3805.0,1.49,1.45,1.45
3807.0,1.5,1.45,1.44
3809.0,1.49,1.45,1.45
3811.0,1.48,1.45,1.45
3813.0,1.47,1.45,1.42
3815.0,1.46,1.46,1.4
3817.0,1.46,1.46,1.43
3819.0,1.46,1.46,1.48
3821.0,1.45,1.46,1.51
3823.0,1.44,1.46,1.54
3825.0,1.43,1.46,1.51
3827.0,1.46,1.46,1.46
3829.0,1.51,1.45,1.45
3831.0,1.49,1.46,1.43
3833.0,1.47,1.46,1.44
3835.0,1.46,1.46,1.43
3837.0,1.38,1.46,1.41
3840.0,1.38,1.46,1.42
3842.0,1.48,1.46,1.43
3843.0,1.51,1.46,1.45
3845.0,1.52,1.46,1.48
3847.0,1.5,1.46,1.48
3849.0,1.51,1.46,1.46
3851.0,1.51,1.46,1.45
3853.0,1.48,1.46,1.44
3855.0,1.45,1.46,1.42
3857.0,1.44,1.46,1.45
3859.0,1.43,1.46,1.47
3861.0,1.43,1.46,1.49
3863.0,1.44,1.46,1.5
3865.0,1.46,1.46,1.51
3867.0,1.46,1.46,1.5
3869.0,1.45,1.45,1.51
3871.0,1.45,1.45,1.51
3873.0,1.45,1.45,1.51
3875.0,1.44,1.46,1.5
3877.0,1.42,1.46,1.49
3879.0,1.41,1.46,1.47
3881.0,1.39,1.46,1.48
3884.0,1.42,1.46,1.47
3885.0,1.48,1.46,1.5
3887.0,1.5,1.45,1.51
3889.0,1.45,1.45,1.49
3891.0,1.39,1.45,1.47
3893.0,1.48,1.46,1.47
3895.0,1.46,1.46,1.46
3897.0,1.43,1.46,1.47
3899.0,1.43,1.46,1.48
3901.0,1.43,1.46,1.49
3903.0,1.44,1.46,1.52
3905.0,1.46,1.46,1.53
3907.0,1.52,1.46,1.51
3909.0,1.55,1.45,1.47
3911.0,1.57,1.46,1.45
3913.0,1.59,1.46,1.47
3915.0,1.59,1.46,1.48
3917.0,1.58,1.46,1.5
3919.0,1.57,1.46,1.5
3921.0,1.61,1.46,1.48
3923.0,1.62,1.46,1.45
3926.0,1.54,1.45,1.45
3928.0,1.47,1.45,1.42
3929.0,1.42,1.45,1.4
3931.0,1.4,1.45,1.4
3933.0,1.43,1.45,1.4
3935.0,1.42,1.46,1.38
3937.0,1.44,1.46,1.39
3939.0,1.39,1.46,1.39
3941.0,1.48,1.46,1.41
3943.0,1.52,1.46,1.43
3945.0,1.48,1.46,1.42
3947.0,1.45,1.45,1.42
3949.0,1.46,1.45,1.4
3951.0,1.45,1.45,1.4
3953.0,1.44,1.45,1.37
3955.0,1.43,1.46,1.34
3957.0,1.42,1.46,1.32
3959.0,1.42,1.46,1.33
3961.0,1.42,1.46,1.34
3963.0,1.46,1.46,1.33
3965.0,1.53,1.46,1.34
3968.0,1.56,1.45,1.37
3970.0,1.56,1.45,1.39
3971.0,1.58,1.45,1.37
3973.0,1.6,1.46,1.36
3975.0,1.58,1.46,1.37
3977.0,1.52,1.46,1.37
3979.0,1.55,1.46,1.35
3981.0,1.59,1.46,1.39
3983.0,1.59,1.46,1.41
3985.0,1.58,1.46,1.45
3987.0,1.59,1.45,1.45
3989.0,1.59,1.45,1.43
3991.0,1.57,1.45,1.42
3993.0,1.52,1.45,1.4
3995.0,1.48,1.45,1.39
3997.0,1.46,1.46,1.39
3999.0,1.46,1.46,1.38
4001.0,1.45,1.46,1.38
4003.0,1.44,1.46,1.39
4005.0,1.4,1.46,1.41
4007.0,1.49,1.45,1.41
4009.0,1.46,1.45,1.41
4012.0,1.46,1.46,1.4
4013.0,1.47,1.46,1.4
4015.0,1.49,1.46,1.37
4017.0,1.5,1.46,1.32
4019.0,1.47,1.46,1.29
4021.0,1.49,1.46,1.29
4023.0,1.51,1.46,1.31
4025.0,1.52,1.46,1.31
4027.0,1.51,1.46,1.34
4029.0,1.49,1.45,1.37
4031.0,1.48,1.45,1.37
4033.0,1.46,1.46,1.33
4035.0,1.45,1.46,1.31
4037.0,1.44,1.46,1.3
4039.0,1.44,1.46,1.32
4041.0,1.47,1.46,1.33
4043.0,1.48,1.46,1.33
4045.0,1.48,1.46,1.35
4047.0,1.45,1.46,1.36
4049.0,1.45,1.45,1.36
4051.0,1.41,1.45,1.37
4054.0,1.31,1.45,1.38
4056.0,1.37,1.46,1.39
4057.0,1.38,1.46,1.43
4059.0,1.39,1.46,1.42
4061.0,1.38,1.46,1.41
4063.0,1.38,1.46,1.43
4065.0,1.39,1.46,1.44
4067.0,1.4,1.45,1.48
4069.0,1.38,1.45,1.5
4071.0,1.35,1.45,1.51
4073.0,1.31,1.45,1.51
4075.0,1.32,1.46,1.5
4077.0,1.33,1.46,1.5
4079.0,1.34,1.46,1.51
4081.0,1.34,1.46,1.52
4083.0,1.36,1.46,1.55
4085.0,1.37,1.46,1.55
4087.0,1.36,1.45,1.51
4089.0,1.31,1.46,1.46
4091.0,1.36,1.46,1.42
4093.0,1.39,1.46,1.42
4096.0,1.34,1.46,1.4
4098.0,1.33,1.46,1.4
4099.0,1.33,1.46,1.41
4101.0,1.35,1.46,1.44
4103.0,1.36,1.46,1.45
4105.0,1.36,1.46,1.46
4107.0,1.36,1.45,1.47
4109.0,1.34,1.45,1.46
4111.0,1.38,1.46,1.45
4113.0,1.38,1.45,1.46
4115.0,1.37,1.46,1.45
4117.0,1.37,1.46,1.43
4119.0,1.36,1.46,1.44
4121.0,1.36,1.46,1.43
4123.0,1.36,1.46,1.43
4125.0,1.37,1.46,1.43
4127.0,1.38,1.45,1.41
4129.0,1.38,1.46,1.38
4131.0,1.36,1.45,1.4
4133.0,1.31,1.46,1.39
4135.0,1.33,1.46,1.39
4137.0,1.38,1.46,1.4
4140.0,1.39,1.46,1.43
4141.0,1.37,1.46,1.45
4143.0,1.32,1.46,1.45
4145.0,1.38,1.46,1.46
4147.0,1.44,1.45,1.48
4149.0,1.42,1.45,1.5
4151.0,1.4,1.45,1.53
4153.0,1.39,1.45,1.54
4155.0,1.38,1.46,1.52
4157.0,1.39,1.46,1.51
4159.0,1.37,1.46,1.49
4161.0,1.4,1.46,1.51
4163.0,1.43,1.46,1.51
4165.0,1.45,1.46,1.49
4167.0,1.45,1.45,1.5
4169.0,1.43,1.45,1.51
4171.0,1.41,1.45,1.51
4173.0,1.39,1.46,1.5
4175.0,1.42,1.46,1.48
4177.0,1.45,1.46,1.48
4179.0,1.43,1.46,1.49
4182.0,1.44,1.46,1.51
4184.0,1.46,1.46,1.5
4185.0,1.48,1.45,1.5
4187.0,1.52,1.46,1.49
4189.0,1.51,1.45,1.49
4191.0,1.51,1.46,1.49
4193.0,1.47,1.45,1.49
4195.0,1.4,1.45,1.47
4197.0,1.38,1.46,1.47
4199.0,1.38,1.46,1.46
4201.0,1.38,1.46,1.46
4203.0,1.38,1.46,1.46
4205.0,1.33,1.45,1.48
4207.0,1.4,1.45,1.47
4209.0,1.42,1.45,1.45
4211.0,1.42,1.45,1.44
4213.0,1.4,1.46,1.44
4215.0,1.39,1.46,1.44
4217.0,1.38,1.46,1.42
4219.0,1.36,1.46,1.41
4221.0,1.41,1.46,1.42
4224.0,1.49,1.46,1.45
4226.0,1.57,1.46,1.44
4227.0,1.6,1.45,1.44
4229.0,1.6,1.45,1.45
4231.0,1.56,1.45,1.43
4233.0,1.51,1.45,1.41
4235.0,1.47,1.46,1.39
4237.0,1.45,1.46,1.38
4239.0,1.43,1.46,1.37
4241.0,1.46,1.46,1.37
4243.0,1.47,1.46,1.4
4245.0,1.48,1.46,1.4
4247.0,1.47,1.45,1.4
4249.0,1.44,1.45,1.43
4251.0,1.45,1.46,1.44
4253.0,1.45,1.46,1.45
4255.0,1.37,1.46,1.44
4257.0,1.43,1.46,1.44
4259.0,1.45,1.46,1.45
4261.0,1.46,1.46,1.45
4263.0,1.46,1.46,1.45
4265.0,1.42,1.46,1.47
4268.0,1.45,1.45,1.47
4269.0,1.47,1.45,1.5
4271.0,1.48,1.45,1.49
4273.0,1.45,1.45,1.45
4275.0,1.4,1.45,1.42
4277.0,1.41,1.46,1.42
4279.0,1.39,1.46,1.42
4281.0,1.4,1.46,1.4
4283.0,1.41,1.46,1.41
4285.0,1.44,1.46,1.42
4287.0,1.44,1.46,1.44
4289.0,1.42,1.45,1.45
4291.0,1.43,1.45,1.46
4293.0,1.43,1.45,1.54
4295.0,1.41,1.45,1.6
4297.0,1.42,1.46,1.64
4299.0,1.42,1.46,1.65
4301.0,1.44,1.46,1.67
4303.0,1.45,1.46,1.67
4305.0,1.43,1.45,1.6
4307.0,1.4,1.45,1.53
4310.0,1.42,1.45,1.47
4312.0,1.37,1.45,1.44
4313.0,1.39,1.46,1.42
4315.0,1.41,1.46,1.39
4317.0,1.38,1.46,1.39
4319.0,1.33,1.46,1.39
4321.0,1.34,1.46,1.38
4323.0,1.38,1.46,1.38
4325.0,1.43,1.45,1.37
4327.0,1.42,1.46,1.34
4329.0,1.41,1.45,1.33
4331.0,1.39,1.45,1.33
4333.0,1.38,1.46,1.33
4335.0,1.36,1.46,1.31
4337.0,1.4,1.46,1.31
4339.0,1.4,1.46,1.33
4341.0,1.43,1.46,1.35
4343.0,1.44,1.46,1.36
4345.0,1.44,1.45,1.43
4347.0,1.47,1.45,1.47
4349.0,1.47,1.45,1.49
4352.0,1.35,1.45,1.48
4354.0,1.41,1.45,1.48
4355.0,1.45,1.46,1.49
4357.0,1.43,1.46,1.49
4359.0,1.45,1.46,1.5
4361.0,1.47,1.46,1.49
4363.0,1.48,1.46,1.5
4365.0,1.5,1.46,1.5
4367.0,1.49,1.45,1.46
4369.0,1.46,1.45,1.45
4371.0,1.43,1.45,1.46
4373.0,1.46,1.46,1.48
4375.0,1.45,1.46,1.47
4377.0,1.43,1.46,1.46
4379.0,1.41,1.46,1.47
4381.0,1.41,1.46,1.48
4383.0,1.41,1.46,1.49
4385.0,1.43,1.45,1.53
4387.0,1.43,1.45,1.56
4389.0,1.43,1.45,1.58
4391.0,1.42,1.45,1.58
4393.0,1.41,1.45,1.59
4396.0,1.36,1.46,1.58
4397.0,1.37,1.46,1.55
4399.0,1.38,1.46,1.51
4401.0,1.39,1.46,1.51
4403.0,1.33,1.46,1.5
4405.0,1.43,1.46,1.5
4407.0,1.43,1.46,1.49
4409.0,1.43,1.45,1.49
4411.0,1.4,1.46,1.45
4413.0,1.4,1.46,1.38
4415.0,1.36,1.46,1.36
4417.0,1.36,1.46,1.37
4419.0,1.35,1.46,1.36
4421.0,1.35,1.46,1.39
4423.0,1.36,1.46,1.39
4425.0,1.38,1.45,1.41
4427.0,1.39,1.45,1.44
4429.0,1.4,1.45,1.43
4431.0,1.39,1.46,1.42
4433.0,1.4,1.46,1.39
4435.0,1.42,1.46,1.37
4438.0,1.46,1.46,1.34
4440.0,1.49,1.46,1.33
4441.0,1.5,1.46,1.35
4443.0,1.52,1.46,1.4
4445.0,1.53,1.45,1.42
4447.0,1.47,1.45,1.44
4449.0,1.52,1.45,1.42
4451.0,1.55,1.45,1.4
4453.0,1.53,1.46,1.37
4455.0,1.51,1.46,1.37
4457.0,1.49,1.46,1.37
4459.0,1.48,1.46,1.36
4461.0,1.52,1.46,1.37
4463.0,1.53,1.46,1.38
4465.0,1.53,1.46,1.42
4467.0,1.49,1.45,1.41
4469.0,1.5,1.45,1.4
4471.0,1.5,1.45,1.39
4473.0,1.51,1.45,1.4
4475.0,1.49,1.46,1.4
4477.0,1.48,1.46,1.39
4480.0,1.45,1.46,1.39
4482.0,1.44,1.46,1.42
4483.0,1.49,1.46,1.43
4485.0,1.5,1.45,1.45
4487.0,1.48,1.45,1.47
4489.0,1.47,1.45,1.47
4491.0,1.45,1.45,1.45
4493.0,1.43,1.46,1.46
4495.0,1.38,1.46,1.44
4497.0,1.35,1.46,1.42
4499.0,1.45,1.46,1.41
4501.0,1.49,1.46,1.4
4503.0,1.48,1.46,1.4
4505.0,1.48,1.46,1.4
4507.0,1.48,1.45,1.36
4509.0,1.46,1.46,1.37
4511.0,1.45,1.45,1.37
4513.0,1.43,1.46,1.37
4515.0,1.42,1.46,1.35
4517.0,1.42,1.46,1.36
4519.0,1.41,1.46,1.35
4521.0,1.42,1.46,1.35
4524.0,1.43,1.46,1.38
4525.0,1.42,1.46,1.4
4527.0,1.46,1.46,1.4
4529.0,1.48,1.45,1.4
4531.0,1.48,1.45,1.42
4533.0,1.44,1.45,1.43
4535.0,1.45,1.46,1.43
4537.0,1.45,1.46,1.42
4539.0,1.46,1.46,1.42
4541.0,1.45,1.46,1.44
4543.0,1.46,1.46,1.46
4545.0,1.48,1.45,1.46
4547.0,1.42,1.45,1.44
4549.0,1.41,1.45,1.4
4551.0,1.47,1.45,1.4
4553.0,1.46,1.46,1.42
4555.0,1.43,1.46,1.44
4557.0,1.43,1.46,1.45
4559.0,1.43,1.46,1.45
4561.0,1.44,1.46,1.48
4563.0,1.45,1.46,1.52
4566.0,1.45,1.45,1.54
4568.0,1.45,1.45,1.51
4569.0,1.45,1.46,1.5
4571.0,1.44,1.46,1.5
4573.0,1.41,1.45,1.54
4575.0,1.42,1.46,1.58
4577.0,1.39,1.46,1.6
4579.0,1.38,1.46,1.61
4581.0,1.4,1.46,1.6
4583.0,1.42,1.46,1.62
4585.0,1.44,1.45,1.66
4587.0,1.46,1.45,1.65
4589.0,1.43,1.45,1.66
4591.0,1.35,1.45,1.63
4593.0,1.44,1.46,1.63
4595.0,1.45,1.46,1.63
4597.0,1.45,1.46,1.62
4599.0,1.45,1.46,1.59
4601.0,1.46,1.46,1.57
4603.0,1.47,1.46,1.57
4605.0,1.47,1.45,1.58
4608.0,1.47,1.45,1.58
4610.0,1.48,1.45,1.57
4611.0,1.49,1.46,1.55
4613.0,1.46,1.46,1.56
4615.0,1.47,1.46,1.54
4617.0,1.45,1.46,1.53
4619.0,1.43,1.46,1.54
4621.0,1.44,1.46,1.56
4623.0,1.5,1.46,1.58
4625.0,1.53,1.46,1.6
4627.0,1.52,1.45,1.6
4629.0,1.48,1.45,1.58
4631.0,1.48,1.45,1.55
4633.0,1.49,1.46,1.53
4635.0,1.49,1.46,1.5
4637.0,1.48,1.46,1.46
4639.0,1.5,1.46,1.45
4641.0,1.52,1.46,1.45
4643.0,1.55,1.46,1.46
4645.0,1.57,1.45,1.47
4647.0,1.56,1.45,1.45
4649.0,1.54,1.45,1.45
4652.0,1.54,1.45,1.45
4653.0,1.54,1.45,1.45
4655.0,1.52,1.46,1.46
4657.0,1.48,1.46,1.44
4659.0,1.5,1.46,1.45
4661.0,1.52,1.46,1.47
4663.0,1.52,1.46,1.48
4665.0,1.56,1.45,1.49
4667.0,1.52,1.45,1.45
4669.0,1.47,1.45,1.43
4671.0,1.53,1.46,1.41
4673.0,1.49,1.46,1.41
4675.0,1.46,1.46,1.4
4677.0,1.48,1.46,1.39
4679.0,1.46,1.46,1.42
4681.0,1.46,1.46,1.43
4683.0,1.47,1.46,1.45
4685.0,1.48,1.45,1.44
4687.0,1.49,1.45,1.42
4689.0,1.49,1.45,1.39
4691.0,1.47,1.45,1.35
4694.0,1.47,1.46,1.34
4696.0,1.46,1.46,1.32
4697.0,1.46,1.46,1.34
4699.0,1.45,1.46,1.39
4701.0,1.46,1.46,1.4
4703.0,1.47,1.46,1.4
4705.0,1.47,1.45,1.42
4707.0,1.45,1.45,1.44
4709.0,1.45,1.45,1.45
4711.0,1.43,1.45,1.43
4713.0,1.41,1.46,1.43
4715.0,1.39,1.46,1.42
4717.0,1.35,1.46,1.39
4719.0,1.4,1.46,1.4
4721.0,1.45,1.46,1.43
4723.0,1.47,1.46,1.43
4725.0,1.47,1.45,1.43
4727.0,1.42,1.45,1.41
4729.0,1.4,1.45,1.4
4731.0,1.38,1.45,1.4
4733.0,1.33,1.46,1.41
4736.0,1.42,1.46,1.4
4738.0,1.42,1.46,1.39
4739.0,1.41,1.46,1.42
4741.0,1.43,1.46,1.45
4743.0,1.43,1.46,1.44
4745.0,1.43,1.45,1.41
4747.0,1.42,1.45,1.39
4749.0,1.39,1.45,1.36
4751.0,1.36,1.45,1.37
4753.0,1.37,1.46,1.36
4755.0,1.4,1.46,1.34
4757.0,1.43,1.46,1.31
4759.0,1.43,1.46,1.32
4761.0,1.45,1.46,1.32
4763.0,1.45,1.46,1.35
4765.0,1.44,1.45,1.38
4767.0,1.44,1.45,1.38
4769.0,1.43,1.45,1.35
4771.0,1.42,1.46,1.35
4773.0,1.37,1.46,1.35
4775.0,1.34,1.46,1.32
4777.0,1.35,1.46,1.3
4780.0,1.35,1.46,1.32
4781.0,1.35,1.46,1.32
4783.0,1.35,1.46,1.34
4785.0,1.29,1.45,1.34
4787.0,1.33,1.45,1.32
4789.0,1.41,1.46,1.32
4791.0,1.38,1.46,1.3
4793.0,1.34,1.45,1.28
4795.0,1.33,1.46,1.28
4797.0,1.33,1.46,1.28
4799.0,1.32,1.46,1.31
4801.0,1.34,1.46,1.35
4803.0,1.36,1.46,1.39
4805.0,1.35,1.45,1.41
4807.0,1.36,1.45,1.42
4809.0,1.38,1.45,1.44
4811.0,1.4,1.46,1.41
4813.0,1.42,1.46,1.42
4815.0,1.42,1.46,1.4
4817.0,1.42,1.46,1.39
4819.0,1.43,1.46,1.44
4822.0,1.41,1.46,1.49
4824.0,1.4,1.46,1.53
4825.0,1.44,1.45,1.53
4827.0,1.44,1.45,1.53
4829.0,1.44,1.45,1.51
4831.0,1.42,1.45,1.49
4833.0,1.39,1.46,1.49
4835.0,1.38,1.45,1.52
4837.0,1.39,1.46,1.51
4839.0,1.41,1.46,1.53
4841.0,1.44,1.46,1.55
4843.0,1.44,1.46,1.55
4845.0,1.42,1.45,1.54
4847.0,1.42,1.45,1.55
4849.0,1.47,1.45,1.54
4851.0,1.49,1.45,1.55
4853.0,1.48,1.46,1.51
4855.0,1.46,1.46,1.51
4857.0,1.44,1.46,1.49
4859.0,1.38,1.46,1.51
4861.0,1.41,1.46,1.52
4864.0,1.49,1.46,1.54
4866.0,1.5,1.45,1.55
4867.0,1.5,1.45,1.53
4869.0,1.52,1.45,1.52
4871.0,1.52,1.45,1.5
4873.0,1.49,1.46,1.49
4875.0,1.47,1.46,1.48
4877.0,1.47,1.46,1.47
4879.0,1.47,1.46,1.49
4881.0,1.49,1.46,1.49
4883.0,1.49,1.46,1.51
4885.0,1.5,1.45,1.5
4887.0,1.5,1.45,1.49
4889.0,1.47,1.45,1.48
4891.0,1.45,1.45,1.46
4893.0,1.48,1.46,1.46
4895.0,1.48,1.46,1.45
4897.0,1.4,1.46,1.34
4899.0,1.47,1.46,1.38
4901.0,1.55,1.46,1.44
4903.0,1.55,1.46,1.45
4905.0,1.54,1.46,1.45
4908.0,1.49,1.45,1.45
4909.0,1.5,1.45,1.4
4911.0,1.5,1.45,1.39
4913.0,1.48,1.46,1.37
4915.0,1.44,1.46,1.35
4917.0,1.45,1.46,1.35
4919.0,1.52,1.46,1.37
4921.0,1.59,1.46,1.4
4923.0,1.64,1.46,1.42
4925.0,1.69,1.45,1.41
4927.0,1.68,1.45,1.41
4929.0,1.63,1.45,1.4
4931.0,1.62,1.45,1.41
4933.0,1.58,1.45,1.4
4935.0,1.54,1.46,1.36
4937.0,1.49,1.46,1.35
4939.0,1.48,1.46,1.37
4941.0,1.48,1.46,1.39
4943.0,1.47,1.46,1.4
4945.0,1.52,1.45,1.41
4947.0,1.52,1.45,1.42
4950.0,1.51,1.45,1.42
4952.0,1.49,1.45,1.43
4953.0,1.45,1.46,1.45
4955.0,1.53,1.46,1.45
4957.0,1.54,1.46,1.45
4959.0,1.52,1.46,1.45
4961.0,1.52,1.46,1.47
4963.0,1.53,1.46,1.48
4965.0,1.54,1.45,1.49
4967.0,1.52,1.45,1.5
4969.0,1.47,1.45,1.49
4971.0,1.45,1.46,1.5
4973.0,1.39,1.45,1.51
4975.0,1.41,1.46,1.51
4977.0,1.41,1.46,1.49
4979.0,1.4,1.46,1.47
4981.0,1.39,1.46,1.47
4983.0,1.4,1.46,1.5
4985.0,1.42,1.45,1.5
4987.0,1.42,1.45,1.46
4989.0,1.43,1.45,1.45
4992.0,1.43,1.45,1.45
4994.0,1.41,1.46,1.43
4995.0,1.41,1.46,1.42
4997.0,1.38,1.46,1.4
4999.0,1.36,1.46,1.41
5001.0,1.36,1.46,1.4
5003.0,1.38,1.46,1.42
5005.0,1.42,1.45,1.44
5007.0,1.42,1.45,1.45
5009.0,1.41,1.45,1.43
5011.0,1.41,1.45,1.4
5013.0,1.38,1.45,1.4
5015.0,1.34,1.46,1.38
5017.0,1.43,1.46,1.4
5019.0,1.47,1.46,1.42
5021.0,1.48,1.46,1.44
5023.0,1.48,1.46,1.45
5025.0,1.48,1.45,1.45
5027.0,1.46,1.45,1.44
5029.0,1.44,1.45,1.42
5031.0,1.43,1.45,1.44
5033.0,1.42,1.46,1.44
5036.0,1.42,1.46,1.45
5037.0,1.41,1.46,1.44
5039.0,1.42,1.46,1.41
5041.0,1.43,1.46,1.41
5043.0,1.44,1.46,1.42
5045.0,1.49,1.45,1.44
5047.0,1.51,1.45,1.44
5049.0,1.49,1.45,1.41
5051.0,1.45,1.45,1.4
5053.0,1.43,1.46,1.36
5055.0,1.42,1.46,1.34
5057.0,1.42,1.46,1.27
5059.0,1.42,1.46,1.29
5061.0,1.43,1.46,1.32
5063.0,1.46,1.46,1.34
5065.0,1.47,1.45,1.37
5067.0,1.44,1.45,1.37
5069.0,1.34,1.46,1.35
5071.0,1.42,1.46,1.34
5073.0,1.44,1.45,1.35
5075.0,1.39,1.46,1.35
5078.0,1.38,1.46,1.36
5080.0,1.4,1.46,1.36
5081.0,1.44,1.46,1.35
5083.0,1.47,1.46,1.37
5085.0,1.47,1.45,1.41
5087.0,1.45,1.45,1.43
5089.0,1.43,1.45,1.44
5091.0,1.44,1.46,1.44
5093.0,1.44,1.46,1.44
5095.0,1.44,1.46,1.42
5097.0,1.43,1.46,1.42
5099.0,1.43,1.46,1.44
5101.0,1.44,1.46,1.47
5103.0,1.46,1.46,1.47
5105.0,1.44,1.45,1.47
5107.0,1.41,1.45,1.49
5109.0,1.43,1.46,1.49
5111.0,1.47,1.45,1.49
5113.0,1.48,1.46,1.5
5115.0,1.49,1.46,1.48
5117.0,1.46,1.46,1.47
5120.0,1.47,1.46,1.47
5122.0,1.53,1.46,1.49
5123.0,1.55,1.46,1.52
5125.0,1.51,1.45,1.5
5127.0,1.46,1.45,1.49
5129.0,1.55,1.45,1.46
5131.0,1.55,1.46,1.44
5133.0,1.53,1.46,1.43
5135.0,1.47,1.46,1.46
5137.0,1.42,1.46,1.45
5139.0,1.43,1.46,1.48
5141.0,1.44,1.46,1.5
5143.0,1.45,1.45,1.51
5145.0,1.45,1.45,1.51
5147.0,1.45,1.45,1.51
5149.0,1.44,1.46,1.52
5151.0,1.43,1.46,1.52
5153.0,1.4,1.46,1.53
5155.0,1.4,1.46,1.53
5157.0,1.36,1.46,1.52
5159.0,1.4,1.46,1.53
5161.0,1.42,1.46,1.52
5164.0,1.43,1.46,1.53
5166.0,1.43,1.45,1.52
5167.0,1.35,1.45,1.53
5169.0,1.37,1.46,1.54
5171.0,1.45,1.45,1.53
5173.0,1.43,1.46,1.52
5175.0,1.43,1.46,1.5
5177.0,1.42,1.46,1.49
5179.0,1.41,1.46,1.49
5181.0,1.43,1.46,1.51
5183.0,1.48,1.45,1.51
5185.0,1.5,1.45,1.5
5187.0,1.48,1.45,1.51
5189.0,1.48,1.46,1.51
5191.0,1.47,1.46,1.48
5193.0,1.49,1.46,1.44
5195.0,1.52,1.46,1.41
5197.0,1.51,1.46,1.39
5199.0,1.49,1.46,1.39
5201.0,1.48,1.46,1.39
5203.0,1.52,1.45,1.43
5206.0,1.54,1.45,1.44
5208.0,1.54,1.45,1.42
5209.0,1.51,1.45,1.41
5211.0,1.5,1.46,1.41
5213.0,1.49,1.46,1.43
5215.0,1.48,1.46,1.44
5217.0,1.46,1.46,1.45
5219.0,1.46,1.46,1.47
5221.0,1.49,1.46,1.47
5223.0,1.5,1.46,1.49
5225.0,1.51,1.45,1.5
5227.0,1.47,1.45,1.5
5229.0,1.46,1.45,1.47
5231.0,1.4,1.45,1.48
5233.0,1.4,1.46,1.45
5235.0,1.42,1.46,1.45
5237.0,1.37,1.46,1.45
5239.0,1.43,1.46,1.43
5241.0,1.46,1.46,1.42
5243.0,1.47,1.46,1.41
5245.0,1.47,1.45,1.42
5248.0,1.45,1.45,1.45
5250.0,1.41,1.46,1.41
5251.0,1.39,1.46,1.36
5253.0,1.37,1.46,1.34
5255.0,1.36,1.46,1.33
5257.0,1.36,1.46,1.35
5259.0,1.35,1.46,1.39
5261.0,1.34,1.46,1.41
5263.0,1.37,1.45,1.42
5265.0,1.38,1.45,1.41
5267.0,1.39,1.45,1.41
5269.0,1.34,1.46,1.4
5271.0,1.43,1.46,1.38
5273.0,1.43,1.46,1.36
5275.0,1.38,1.46,1.32
5277.0,1.42,1.46,1.34
5279.0,1.44,1.46,1.36
5281.0,1.44,1.46,1.4
5283.0,1.44,1.46,1.43
5285.0,1.41,1.46,1.45
5287.0,1.37,1.45,1.46
5289.0,1.37,1.45,1.42
5292.0,1.36,1.46,1.4
5294.0,1.39,1.46,1.39
5295.0,1.4,1.46,1.39
5297.0,1.42,1.46,1.37
5299.0,1.45,1.46,1.37
5301.0,1.46,1.46,1.4
5303.0,1.45,1.46,1.41
5305.0,1.46,1.45,1.4
5307.0,1.48,1.46,1.4
5309.0,1.48,1.46,1.42
5311.0,1.46,1.46,1.43
5313.0,1.43,1.46,1.41
5315.0,1.42,1.46,1.37
5317.0,1.37,1.46,1.36
5319.0,1.39,1.46,1.35
5321.0,1.45,1.46,1.32
5323.0,1.45,1.46,1.34
5325.0,1.44,1.45,1.34
5327.0,1.46,1.45,1.32
5329.0,1.45,1.45,1.32
5331.0,1.44,1.46,1.33
5334.0,1.43,1.46,1.3
5336.0,1.42,1.46,1.29
5337.0,1.41,1.46,1.28
5339.0,1.41,1.46,1.28
5341.0,1.42,1.46,1.32
5343.0,1.44,1.46,1.34
5345.0,1.41,1.45,1.36
5347.0,1.35,1.45,1.39
5349.0,1.37,1.45,1.4
5351.0,1.38,1.46,1.41
5353.0,1.32,1.46,1.42
5355.0,1.36,1.46,1.42
5357.0,1.39,1.46,1.41
5359.0,1.36,1.46,1.42
5361.0,1.38,1.46,1.41
5363.0,1.38,1.46,1.41
5365.0,1.37,1.45,1.39
5367.0,1.37,1.45,1.37
5369.0,1.39,1.45,1.38
5371.0,1.39,1.46,1.39
5373.0,1.39,1.46,1.38
5376.0,1.39,1.46,1.36
5378.0,1.39,1.46,1.37
5379.0,1.41,1.46,1.4
5381.0,1.4,1.46,1.39
5383.0,1.39,1.46,1.4
5385.0,1.44,1.45,1.41
5387.0,1.45,1.45,1.43
5389.0,1.43,1.46,1.44
5391.0,1.42,1.45,1.46
5393.0,1.43,1.46,1.46
5395.0,1.43,1.46,1.45
5397.0,1.43,1.46,1.45
5399.0,1.45,1.46,1.45
5401.0,1.4,1.46,1.47
5403.0,1.46,1.46,1.49
5405.0,1.48,1.45,1.49
5407.0,1.44,1.45,1.47
5409.0,1.45,1.45,1.49
5411.0,1.46,1.45,1.53
5413.0,1.45,1.46,1.53
5415.0,1.45,1.46,1.51
5417.0,1.42,1.46,1.51
5420.0,1.43,1.46,1.52
5422.0,1.43,1.46,1.55
5423.0,1.47,1.46,1.55
5425.0,1.49,1.46,1.53
5427.0,1.49,1.45,1.52
5429.0,1.48,1.45,1.53
5431.0,1.48,1.45,1.5
5433.0,1.46,1.46,1.46
5435.0,1.46,1.46,1.43
5437.0,1.46,1.46,1.43
5439.0,1.46,1.46,1.45
5441.0,1.47,1.46,1.44
5443.0,1.5,1.45,1.45
5445.0,1.48,1.45,1.43
5447.0,1.49,1.45,1.44
5449.0,1.47,1.46,1.46
5451.0,1.44,1.46,1.46
5453.0,1.5,1.46,1.44
5455.0,1.51,1.46,1.46
5457.0,1.47,1.46,1.47
5459.0,1.39,1.46,1.47
5462.0,1.5,1.46,1.45
5464.0,1.55,1.45,1.46
5465.0,1.54,1.45,1.45
5467.0,1.52,1.45,1.45
5469.0,1.52,1.45,1.45
5471.0,1.51,1.45,1.45
5473.0,1.47,1.46,1.44
5475.0,1.46,1.46,1.43
5477.0,1.45,1.46,1.43
5479.0,1.45,1.46,1.44
5481.0,1.47,1.46,1.45
5483.0,1.46,1.45,1.46
5485.0,1.47,1.45,1.47
5487.0,1.48,1.45,1.47
5489.0,1.47,1.46,1.47
5491.0,1.44,1.45,1.45
5493.0,1.45,1.46,1.43
5495.0,1.46,1.46,1.42
5497.0,1.46,1.46,1.41
5499.0,1.45,1.46,1.42
5501.0,1.46,1.46,1.41
5504.0,1.46,1.45,1.4
5506.0,1.46,1.45,1.4
5507.0,1.42,1.45,1.38
5509.0,1.42,1.45,1.38
5511.0,1.44,1.45,1.39
5513.0,1.39,1.46,1.38
5515.0,1.35,1.46,1.37
5517.0,1.3,1.46,1.38
5519.0,1.4,1.46,1.39
5521.0,1.43,1.46,1.41
5523.0,1.41,1.45,1.43
5525.0,1.39,1.46,1.44
5527.0,1.37,1.45,1.42
5529.0,1.41,1.45,1.46
5531.0,1.43,1.45,1.47
5533.0,1.43,1.45,1.43
5535.0,1.39,1.46,1.4
5537.0,1.4,1.46,1.37
5539.0,1.42,1.46,1.35
5541.0,1.44,1.46,1.34
5543.0,1.45,1.46,1.35
5545.0,1.44,1.45,1.34
5548.0,1.44,1.45,1.35
5550.0,1.45,1.45,1.36
5551.0,1.48,1.45,1.37
5553.0,1.47,1.46,1.38
5555.0,1.47,1.46,1.38
5557.0,1.46,1.46,1.4
5559.0,1.45,1.46,1.44
5561.0,1.44,1.46,1.45
5563.0,1.47,1.45,1.45
5565.0,1.44,1.45,1.43
5567.0,1.36,1.45,1.43
5569.0,1.46,1.45,1.43
5571.0,1.5,1.45,1.43
5573.0,1.49,1.46,1.45
5575.0,1.45,1.46,1.44
5577.0,1.42,1.46,1.46
5579.0,1.42,1.46,1.48
5581.0,1.45,1.46,1.48
5583.0,1.46,1.46,1.49
5585.0,1.45,1.45,1.49
5587.0,1.42,1.45,1.47
5590.0,1.39,1.45,1.46
5592.0,1.37,1.45,1.47
5593.0,1.35,1.46,1.46
5595.0,1.36,1.46,1.47
5597.0,1.36,1.46,1.47
5599.0,1.36,1.46,1.47
5601.0,1.36,1.46,1.49
5603.0,1.4,1.46,1.54
5605.0,1.41,1.46,1.54
5607.0,1.4,1.45,1.51
5609.0,1.38,1.46,1.5
5611.0,1.4,1.46,1.49
5613.0,1.4,1.46,1.49
5615.0,1.39,1.46,1.48
5617.0,1.36,1.46,1.49
5619.0,1.43,1.46,1.51
5621.0,1.46,1.46,1.54
5623.0,1.46,1.46,1.55
5625.0,1.47,1.45,1.55
5627.0,1.46,1.45,1.56
5629.0,1.45,1.45,1.57
5632.0,1.44,1.46,1.57
5634.0,1.43,1.46,1.57
5635.0,1.44,1.46,1.55
5637.0,1.44,1.46,1.52
5639.0,1.43,1.46,1.51
5641.0,1.43,1.46,1.51
5643.0,1.49,1.46,1.51
5645.0,1.53,1.46,1.5
5647.0,1.51,1.45,1.49
5649.0,1.49,1.45,1.48
5651.0,1.47,1.46,1.47
5653.0,1.48,1.46,1.46
5655.0,1.46,1.46,1.46
5657.0,1.38,1.46,1.46
5659.0,1.45,1.46,1.49
5661.0,1.52,1.46,1.49
5663.0,1.5,1.45,1.49
5665.0,1.49,1.45,1.47
5667.0,1.48,1.45,1.48
5669.0,1.47,1.45,1.48
5671.0,1.45,1.46,1.49
5673.0,1.4,1.46,1.46
5676.0,1.35,1.46,1.44
5678.0,1.33,1.46,1.44
5679.0,1.32,1.46,1.45
5681.0,1.34,1.46,1.47
5683.0,1.39,1.45,1.47
5685.0,1.4,1.46,1.46
5687.0,1.38,1.45,1.44
5689.0,1.35,1.45,1.46
5691.0,1.41,1.46,1.47
5693.0,1.38,1.46,1.47
5695.0,1.35,1.46,1.46
5697.0,1.34,1.46,1.45
5699.0,1.35,1.46,1.45
5701.0,1.35,1.46,1.46
5703.0,1.38,1.46,1.46
5705.0,1.37,1.45,1.43
5707.0,1.34,1.45,1.42
5709.0,1.31,1.46,1.4
5711.0,1.34,1.45,1.38
5713.0,1.38,1.46,1.4
5715.0,1.39,1.46,1.43
5718.0,1.38,1.46,1.43
5720.0,1.39,1.46,1.44
5721.0,1.4,1.46,1.44
5723.0,1.41,1.45,1.44
5725.0,1.4,1.45,1.42
5727.0,1.35,1.45,1.41
5729.0,1.33,1.45,1.4
5731.0,1.46,1.46,1.38
5733.0,1.45,1.46,1.35
5735.0,1.45,1.46,1.32
5737.0,1.45,1.46,1.32
5739.0,1.44,1.46,1.31
5741.0,1.44,1.46,1.3
5743.0,1.41,1.45,1.32
5745.0,1.38,1.45,1.32
5747.0,1.37,1.45,1.33
5749.0,1.38,1.45,1.34
5751.0,1.37,1.45,1.34
5753.0,1.36,1.46,1.33
5755.0,1.36,1.46,1.33
5757.0,1.35,1.46,1.34
5760.0,1.36,1.46,1.35
5762.0,1.37,1.46,1.38
5763.0,1.38,1.46,1.39
5765.0,1.36,1.45,1.42
5767.0,1.35,1.46,1.43
5769.0,1.34,1.46,1.41
5771.0,1.4,1.46,1.41
5773.0,1.4,1.46,1.43
5775.0,1.35,1.46,1.43
5777.0,1.35,1.46,1.43
5779.0,1.44,1.46,1.47
5781.0,1.43,1.46,1.46
5783.0,1.44,1.46,1.47
5785.0,1.44,1.45,1.5
5787.0,1.44,1.45,1.52
5789.0,1.45,1.46,1.53
5791.0,1.46,1.46,1.52
5793.0,1.47,1.46,1.51
5795.0,1.45,1.46,1.49
5797.0,1.41,1.46,1.49
5799.0,1.41,1.46,1.5
5801.0,1.42,1.46,1.5
5804.0,1.44,1.46,1.48
5806.0,1.47,1.45,1.45
5807.0,1.49,1.45,1.44
5809.0,1.46,1.45,1.44
5811.0,1.42,1.45,1.44
5813.0,1.4,1.46,1.44
5815.0,1.41,1.46,1.42
5817.0,1.41,1.46,1.42
5819.0,1.43,1.46,1.43
5821.0,1.47,1.46,1.43
5823.0,1.51,1.45,1.42
5825.0,1.49,1.45,1.4
5827.0,1.48,1.46,1.41
5829.0,1.47,1.45,1.41
5831.0,1.46,1.46,1.41
5833.0,1.45,1.46,1.43
5835.0,1.45,1.46,1.41
5837.0,1.43,1.46,1.41
5839.0,1.45,1.46,1.43
5841.0,1.48,1.46,1.44
5843.0,1.49,1.45,1.41
5846.0,1.47,1.46,1.39
5848.0,1.44,1.45,1.41
5849.0,1.47,1.46,1.41
5851.0,1.48,1.46,1.41
5853.0,1.48,1.46,1.4
5855.0,1.46,1.46,1.37
5857.0,1.49,1.46,1.38
5859.0,1.51,1.46,1.42
5861.0,1.5,1.46,1.45
5863.0,1.5,1.46,1.45
5865.0,1.5,1.45,1.44
5867.0,1.5,1.45,1.43
5869.0,1.5,1.46,1.44
5871.0,1.49,1.46,1.44
5873.0,1.48,1.46,1.43
5875.0,1.47,1.46,1.4
5877.0,1.45,1.46,1.39
5879.0,1.46,1.46,1.43
5881.0,1.5,1.46,1.45
5883.0,1.52,1.45,1.45
5885.0,1.5,1.45,1.45
5888.0,1.48,1.46,1.43
5890.0,1.42,1.46,1.41
5891.0,1.38,1.46,1.4
5893.0,1.36,1.46,1.39
5895.0,1.36,1.46,1.39
5897.0,1.39,1.46,1.39
5899.0,1.41,1.46,1.4
5901.0,1.42,1.46,1.41
5903.0,1.44,1.45,1.41
5905.0,1.42,1.45,1.43
5907.0,1.38,1.45,1.46
5909.0,1.44,1.45,1.47
5911.0,1.47,1.46,1.47
5913.0,1.47,1.46,1.49
5915.0,1.35,1.46,1.48
5917.0,1.35,1.46,1.49
5919.0,1.55,1.46,1.49
5921.0,1.58,1.46,1.5
5923.0,1.58,1.45,1.5
5925.0,1.58,1.45,1.48
5927.0,1.57,1.46,1.49
5929.0,1.48,1.45,1.5
5932.0,1.52,1.46,1.5
5934.0,1.53,1.46,1.49
5935.0,1.55,1.46,1.48
5937.0,1.55,1.46,1.51
5939.0,1.54,1.46,1.5
5941.0,1.54,1.46,1.49
5943.0,1.6,1.45,1.48
5945.0,1.57,1.45,1.47
5947.0,1.59,1.45,1.46
5949.0,1.57,1.45,1.44
5951.0,1.56,1.46,1.42
5953.0,1.56,1.46,1.42
5955.0,1.54,1.46,1.42
5957.0,1.52,1.46,1.45
5959.0,1.5,1.46,1.47
5961.0,1.48,1.46,1.48
5963.0,1.5,1.45,1.49
5965.0,1.49,1.45,1.49
5967.0,1.45,1.45,1.5
5969.0,1.43,1.46,1.51
5971.0,1.43,1.46,1.51
5974.0,1.41,1.46,1.52
5976.0,1.4,1.46,1.49
5977.0,1.43,1.46,1.51
5979.0,1.44,1.46,1.52
5981.0,1.45,1.46,1.54
5983.0,1.45,1.46,1.55
5985.0,1.45,1.45,1.55
5987.0,1.45,1.45,1.52
5989.0,1.44,1.46,1.5
5991.0,1.44,1.46,1.49
5993.0,1.43,1.46,1.48
5995.0,1.36,1.46,1.47
5997.0,1.43,1.46,1.47
5999.0,1.51,1.46,1.47
6001.0,1.52,1.46,1.48
6003.0,1.54,1.46,1.48
6005.0,1.53,1.45,1.43
6007.0,1.49,1.46,1.4
6009.0,1.49,1.46,1.4
6011.0,1.51,1.46,1.38
6013.0,1.49,1.46,1.38
6016.0,1.47,1.46,1.39
6018.0,1.48,1.46,1.4
6019.0,1.49,1.46,1.42
6021.0,1.5,1.46,1.44
6023.0,1.5,1.45,1.44
6025.0,1.51,1.45,1.43
6027.0,1.55,1.45,1.43
6029.0,1.56,1.45,1.42
6031.0,1.53,1.46,1.42
6033.0,1.52,1.46,1.39
6035.0,1.51,1.46,1.36
6037.0,1.51,1.46,1.35
6039.0,1.52,1.46,1.39
6041.0,1.52,1.46,1.39
6043.0,1.53,1.45,1.4
6045.0,1.52,1.45,1.39
6047.0,1.53,1.45,1.38
6049.0,1.53,1.45,1.42
6051.0,1.5,1.46,1.43
6053.0,1.45,1.46,1.44
6055.0,1.45,1.46,1.42
6057.0,1.44,1.46,1.41
6060.0,1.45,1.46,1.45
6062.0,1.47,1.46,1.48
6063.0,1.47,1.46,1.46
6065.0,1.45,1.45,1.47
6067.0,1.45,1.45,1.46
6069.0,1.46,1.46,1.45
6071.0,1.45,1.45,1.42
6073.0,1.46,1.46,1.43
6075.0,1.46,1.46,1.44
6077.0,1.46,1.46,1.45
6079.0,1.47,1.46,1.44
6081.0,1.47,1.46,1.45
6083.0,1.47,1.45,1.45
6085.0,1.45,1.45,1.43
6087.0,1.44,1.46,1.41
6089.0,1.45,1.45,1.4
6091.0,1.45,1.46,1.41
6093.0,1.46,1.46,1.42
6095.0,1.47,1.46,1.42
6097.0,1.48,1.46,1.44
6099.0,1.49,1.46,1.43
6102.0,1.51,1.46,1.44
6104.0,1.51,1.45,1.46
6105.0,1.51,1.45,1.45
6107.0,1.49,1.45,1.45
6109.0,1.5,1.45,1.45
6111.0,1.5,1.46,1.44
6113.0,1.48,1.46,1.44
6115.0,1.46,1.46,1.44
6117.0,1.48,1.46,1.44
6119.0,1.48,1.46,1.43
6121.0,1.45,1.46,1.43
6123.0,1.45,1.45,1.42
6125.0,1.43,1.46,1.41
6127.0,1.4,1.45,1.4
6129.0,1.38,1.45,1.41
6131.0,1.35,1.46,1.41
6133.0,1.33,1.46,1.4
6135.0,1.32,1.46,1.38
6137.0,1.31,1.46,1.4
6139.0,1.31,1.46,1.42
6141.0,1.31,1.46,1.42
6144.0,1.33,1.45,1.43
6146.0,1.32,1.45,1.44
6147.0,1.32,1.45,1.43
6149.0,1.33,1.46,1.43
6151.0,1.33,1.46,1.44
6153.0,1.32,1.46,1.43
6155.0,1.31,1.46,1.42
6157.0,1.34,1.46,1.45
6159.0,1.34,1.46,1.46
6161.0,1.32,1.46,1.47
6163.0,1.35,1.45,1.46
6165.0,1.35,1.45,1.46
6167.0,1.34,1.45,1.5
6169.0,1.32,1.45,1.48
6171.0,1.31,1.46,1.48
6173.0,1.32,1.46,1.47
6175.0,1.33,1.46,1.45
6177.0,1.33,1.46,1.46
6179.0,1.36,1.46,1.45
6181.0,1.38,1.46,1.44
6183.0,1.41,1.46,1.43
6185.0,1.41,1.45,1.44
6188.0,1.41,1.45,1.44
6190.0,1.41,1.46,1.45
6191.0,1.42,1.46,1.48
6193.0,1.42,1.46,1.5
6195.0,1.39,1.46,1.52
6197.0,1.39,1.46,1.53
6199.0,1.4,1.46,1.55
6201.0,1.4,1.46,1.56
6203.0,1.37,1.45,1.54
6205.0,1.35,1.45,1.5
6207.0,1.4,1.45,1.49
6209.0,1.44,1.46,1.47
6211.0,1.43,1.46,1.45
6213.0,1.42,1.46,1.45
6215.0,1.45,1.46,1.47
6217.0,1.47,1.46,1.5
6219.0,1.5,1.46,1.48
6221.0,1.53,1.46,1.46
6223.0,1.55,1.45,1.46
6225.0,1.54,1.45,1.45
6227.0,1.52,1.46,1.45
6230.0,1.5,1.46,1.46
6232.0,1.46,1.45,1.45
6233.0,1.44,1.46,1.42
6235.0,1.46,1.46,1.41
6237.0,1.5,1.46,1.46
6239.0,1.53,1.46,1.47
6241.0,1.53,1.46,1.49
6243.0,1.53,1.45,1.49
6245.0,1.51,1.45,1.47
6247.0,1.5,1.45,1.46
6249.0,1.47,1.46,1.45
6251.0,1.47,1.46,1.42
6253.0,1.45,1.46,1.41
6255.0,1.38,1.46,1.39
6257.0,1.4,1.46,1.38
6259.0,1.41,1.46,1.39
6261.0,1.43,1.46,1.42
6263.0,1.42,1.45,1.42
6265.0,1.38,1.45,1.42
6267.0,1.33,1.45,1.39
6269.0,1.29,1.46,1.39
6272.0,1.3,1.46,1.38
6274.0,1.27,1.46,1.38
6275.0,1.25,1.46,1.4
6277.0,1.28,1.46,1.43
6279.0,1.31,1.46,1.43
6281.0,1.32,1.46,1.45
6283.0,1.3,1.46,1.45
6285.0,1.29,1.45,1.44
6287.0,1.28,1.46,1.45
6289.0,1.28,1.45,1.45
6291.0,1.27,1.46,1.43
6293.0,1.25,1.46,1.4
6295.0,1.26,1.46,1.39
6297.0,1.31,1.46,1.39
6299.0,1.32,1.46,1.42
6301.0,1.29,1.46,1.44
6303.0,1.29,1.46,1.42
6305.0,1.32,1.45,1.4
6307.0,1.32,1.46,1.37
6309.0,1.3,1.46,1.36
6311.0,1.31,1.46,1.35
6313.0,1.28,1.46,1.31
6316.0,1.29,1.46,1.32
6318.0,1.31,1.46,1.32
6319.0,1.32,1.46,1.3
6321.0,1.34,1.46,1.32
6323.0,1.38,1.45,1.34
6325.0,1.38,1.45,1.33
6327.0,1.34,1.45,1.33
6329.0,1.32,1.46,1.33
6331.0,1.32,1.46,1.33
6333.0,1.31,1.46,1.28
6335.0,1.3,1.46,1.24
6337.0,1.32,1.46,1.25
6339.0,1.35,1.46,1.28
6341.0,1.43,1.46,1.29
6343.0,1.45,1.45,1.33
6345.0,1.52,1.45,1.35
6347.0,1.44,1.45,1.36
6349.0,1.4,1.45,1.36
6351.0,1.37,1.46,1.36
6353.0,1.34,1.46,1.35
6355.0,1.2,1.46,1.33
6358.0,1.42,1.46,1.33
6360.0,1.54,1.46,1.34
6361.0,1.51,1.45,1.34
6363.0,1.58,1.45,1.34
6365.0,1.48,1.45,1.31
6367.0,1.33,1.45,1.35
6369.0,1.41,1.45,1.34
6371.0,1.6,1.45,1.27
6373.0,1.41,1.45,1.17
6375.0,1.28,1.46,1.05
6377.0,1.33,1.46,0.97
6379.0,1.29,1.45,0.92
6381.0,1.29,1.45,0.86
6383.0,1.31,1.45,0.71
6385.0,1.23,1.45,0.6
6387.0,1.17,1.45,0.55
6389.0,1.1,1.45,0.48
6391.0,1.1,1.46,0.37
6393.0,1.03,1.46,0.26
6395.0,0.85,1.46,0.15
6397.0,0.75,1.46,0.12
6400.0,0.8,1.46,0.09
6402.0,0.86,1.45,0.04
6403.0,0.8,1.45,0.0
6405.0,0.83,1.46,0.0
6407.0,0.85,1.45,0.0
6409.0,0.88,1.45,0.0
6411.0,0.87,1.45,0.0
6413.0,0.87,1.46,0.0
6415.0,0.91,1.46,0.0
6417.0,0.94,1.46,0.0
6419.0,0.99,1.46,0.0
6421.0,1.08,1.45,0.0
6423.0,1.16,1.45,0.0
6425.0,1.18,1.45,0.0
6427.0,1.19,1.45,0.0
6429.0,1.17,1.45,0.0
6431.0,1.2,1.46,0.0
6433.0,1.25,1.46,0.0
6435.0,1.27,1.46,0.0
6437.0,1.28,1.46,0.0
6439.0,1.34,1.45,0.0
6441.0,1.34,1.45,0.0
6444.0,1.39,1.45,0.0
6446.0,1.35,1.45,0.0
6447.0,1.39,1.46,0.0
6449.0,1.35,1.46,0.0
6451.0,1.3,1.46,0.0
6453.0,1.3,1.46,0.0
6455.0,1.3,1.46,0.0
6457.0,1.32,1.46,0.0
6459.0,1.09,1.46,0.0
6461.0,0.77,1.46,0.0
6463.0,0.33,1.46,0.0
6465.0,0.0,1.46,0.0
6467.0,0.0,1.46,0.0
6469.0,0.0,1.46,0.0
6471.0,0.0,1.46,0.0
6473.0,0.0,1.46,0.0
6475.0,0.0,1.46,0.0
6477.0,0.0,1.46,0.0
6479.0,0.0,1.46,0.0
6481.0,0.0,1.46,0.0
6483.0,0.0,1.46,0.0
6486.0,0.0,1.46,0.0
6488.0,0.0,1.46,0.0
6489.0,0.0,1.46,0.0
6491.0,0.0,1.46,0.0
6493.0,0.0,1.46,0.0
6495.0,0.0,1.46,0.0
6497.0,0.0,1.46,0.0
6499.0,0.0,1.46,0.0
6501.0,0.0,1.46,0.0
6503.0,0.0,1.46,0.0
6505.0,0.0,1.46,0.0
6507.0,0.0,1.46,0.0
6509.0,0.0,1.46,0.0
6511.0,0.0,1.46,0.0
6513.0,0.0,1.46,0.0
6515.0,0.0,1.46,0.0
6517.0,0.0,1.46,0.0
6519.0,0.0,1.46,0.0
6521.0,0.0,1.46,0.0
6523.0,0.0,1.46,0.0
6525.0,0.0,1.46,0.0
6528.0,0.0,1.46,0.0
6530.0,0.0,1.46,0.05
6532.0,0.0,1.46,0.15
6533.0,0.0,1.46,0.25
6535.0,0.13,1.46,0.35
6537.0,0.62,1.46,0.47
6539.0,1.08,1.46,0.57
6541.0,1.46,1.46,0.63
6543.0,1.8,1.46,0.62
6545.0,1.95,1.46,0.74
6547.0,2.09,1.46,0.87
6549.0,2.31,1.46,0.95
6551.0,2.49,1.46,1.03
6553.0,2.66,1.46,1.14
6555.0,2.76,1.46,1.22
6557.0,2.83,1.46,1.31
6559.0,2.99,1.46,1.39
6561.0,3.11,1.46,1.46
6563.0,3.26,1.45,1.51
6565.0,3.3,1.45,1.52
6567.0,3.3,1.46,1.56
6569.0,3.3,1.46,1.61
6572.0,3.3,1.46,1.64
6574.0,3.3,1.46,1.69
6575.0,3.3,1.46,1.75
6577.0,3.3,1.46,1.83
6579.0,3.3,1.46,1.89
6581.0,3.3,1.46,1.95
6583.0,3.3,1.46,2.01
6585.0,3.3,1.46,2.06
6587.0,3.3,1.46,2.11
6589.0,3.3,1.46,2.11
6591.0,3.3,1.46,2.14
6593.0,3.3,1.46,2.19
6595.0,3.3,1.46,2.25
6597.0,3.3,1.46,2.28
6599.0,3.3,1.46,2.37
6601.0,3.3,1.46,2.41
6603.0,3.3,1.46,2.45
6605.0,3.3,1.46,2.52
6607.0,3.3,1.46,2.58
6609.0,3.3,1.46,2.65
6611.0,3.3,1.46,2.67
6614.0,3.3,1.46,2.73
6616.0,3.3,1.46,2.77
6617.0,3.3,1.46,2.85
6619.0,3.3,1.46,2.9
6621.0,3.3,1.46,2.95
6623.0,3.3,1.46,2.97
6625.0,3.3,1.46,3.03
6627.0,3.3,1.46,3.04
6629.0,3.25,1.46,3.06
6631.0,3.16,1.46,3.05
6633.0,3.11,1.46,3.09
6635.0,3.06,1.46,3.11
6637.0,3.04,1.46,3.13
6639.0,3.0,1.46,3.14
6641.0,2.97,1.46,3.15
6643.0,2.94,1.46,3.16
6645.0,2.91,1.46,3.15
6647.0,2.89,1.46,3.16
6649.0,2.83,1.46,3.15
6651.0,2.75,1.46,3.14
6653.0,2.71,1.46,3.12
6656.0,2.65,1.46,3.1
6658.0,2.64,1.46,3.14
6660.0,2.62,1.46,3.16
6661.0,2.53,1.46,3.18
6663.0,2.47,1.46,3.2
6665.0,2.51,1.46,3.24
6667.0,2.45,1.46,3.28
6669.0,2.41,1.46,3.3
6671.0,2.34,1.46,3.3
6673.0,2.31,1.46,3.3
6675.0,2.31,1.46,3.3
6677.0,2.3,1.46,3.3
6679.0,2.3,1.46,3.3
6681.0,2.31,1.46,3.3
6683.0,2.26,1.46,3.3
6685.0,2.24,1.46,3.3
6687.0,2.22,1.46,3.3
6689.0,2.22,1.46,3.3
6691.0,2.19,1.46,3.3
6693.0,2.14,1.46,3.3
6695.0,2.1,1.46,3.3
6697.0,2.13,1.46,3.3
6700.0,2.14,1.46,3.3
6702.0,2.13,1.46,3.3
6703.0,2.12,1.46,3.3
6705.0,2.09,1.45,3.3
6707.0,2.05,1.45,3.3
6709.0,2.0,1.45,3.3
6711.0,1.95,1.46,3.3
6713.0,1.97,1.46,3.3
6715.0,1.96,1.46,3.3
6717.0,1.95,1.46,3.3
6719.0,1.93,1.46,3.3
6721.0,1.93,1.45,3.3
6723.0,1.9,1.45,3.3
6725.0,1.9,1.45,3.3
6727.0,1.85,1.45,3.3
6729.0,1.83,1.45,3.3
6731.0,1.81,1.45,3.3
6733.0,1.8,1.45,3.3
6735.0,1.75,1.45,3.3
6737.0,1.71,1.45,3.3
6739.0,1.7,1.45,3.3
6742.0,1.69,1.45,3.3
6744.0,1.65,1.45,3.3
6745.0,1.66,1.45,3.3
6747.0,1.7,1.45,3.3
6749.0,1.69,1.45,3.3
6751.0,1.65,1.45,3.3
6753.0,1.63,1.45,3.3
6755.0,1.58,1.45,3.3
6757.0,1.6,1.45,3.3
6759.0,1.62,1.45,3.3
6761.0,1.62,1.45,3.3
6763.0,1.55,1.45,3.3
6765.0,1.5,1.45,3.3
6767.0,1.45,1.45,3.3
6769.0,1.4,1.45,3.3
6771.0,1.38,1.45,3.3
6773.0,1.37,1.45,3.3
6775.0,1.37,1.45,3.3
6777.0,1.42,1.45,3.26
6779.0,1.45,1.45,3.24
6781.0,1.52,1.45,3.29
6784.0,1.52,1.45,3.3
6786.0,1.5,1.45,3.3
6788.0,1.47,1.45,3.3
6789.0,1.46,1.45,3.3
6791.0,1.43,1.45,3.29
6793.0,1.39,1.45,3.21
6795.0,1.37,1.45,3.15
6797.0,1.37,1.45,3.08
6799.0,1.37,1.45,3.01
6801.0,1.37,1.45,2.94
6803.0,1.35,1.45,2.84
6805.0,1.33,1.45,2.74
6807.0,1.3,1.45,2.65
6809.0,1.29,1.45,2.53
6811.0,1.28,1.45,2.42
6813.0,1.3,1.45,2.35
6815.0,1.37,1.45,2.3
6817.0,1.45,1.45,2.24
6819.0,1.51,1.45,2.15
6821.0,1.59,1.45,2.05
6823.0,1.58,1.45,1.91
6825.0,1.58,1.45,1.82
6828.0,1.59,1.45,1.75
6830.0,1.58,1.45,1.7
6831.0,1.55,1.45,1.68
6833.0,1.54,1.45,1.65
6835.0,1.47,1.45,1.61
6837.0,1.42,1.45,1.6
6839.0,1.52,1.45,1.53
6841.0,1.52,1.45,1.46
6843.0,1.49,1.45,1.43
6845.0,1.46,1.45,1.41
6847.0,1.46,1.45,1.38
6849.0,1.48,1.45,1.34
6851.0,1.38,1.45,1.29
6853.0,1.28,1.45,1.32
6855.0,1.2,1.45,1.34
6857.0,1.16,1.45,1.35
6859.0,1.15,1.45,1.35
6861.0,1.14,1.45,1.34
6863.0,1.15,1.45,1.33
6865.0,1.13,1.45,1.32
6867.0,1.12,1.45,1.29
6870.0,1.09,1.45,1.23
6872.0,1.03,1.45,1.2
6873.0,1.01,1.45,1.18
6875.0,1.0,1.45,1.19
6877.0,1.01,1.45,1.16
6879.0,1.01,1.45,1.13
6881.0,1.04,1.45,1.12
6883.0,1.03,1.45,1.08
6885.0,1.03,1.45,1.06
6887.0,1.04,1.45,1.02
6889.0,1.03,1.45,0.99
6891.0,1.04,1.45,0.97
6893.0,1.04,1.45,0.95
6895.0,1.02,1.45,0.95
6897.0,1.02,1.45,0.95
6899.0,1.03,1.45,0.96
6901.0,1.05,1.45,0.95
6903.0,1.05,1.45,0.91
6905.0,1.05,1.45,0.9
6907.0,1.01,1.45,0.88
6909.0,1.04,1.45,0.87
6912.0,1.04,1.45,0.83
6914.0,1.05,1.45,0.82
6916.0,1.02,1.45,0.83
6917.0,1.08,1.45,0.83
6919.0,1.17,1.45,0.84
6921.0,1.18,1.45,0.83
6923.0,1.17,1.45,0.82
6925.0,1.24,1.45,0.81
6927.0,1.25,1.45,0.79
6929.0,1.28,1.45,0.8
6931.0,1.33,1.45,0.8
6933.0,1.35,1.45,0.82
6935.0,1.37,1.45,0.82
6937.0,1.39,1.45,0.79
6939.0,1.44,1.45,0.78
6941.0,1.45,1.45,0.8
6943.0,1.46,1.45,0.8
6945.0,1.44,1.45,0.78
6947.0,1.38,1.45,0.77
6949.0,1.43,1.45,0.76
6951.0,1.42,1.45,0.74
6953.0,1.39,1.45,0.68
6956.0,1.33,1.45,0.67
6958.0,1.32,1.45,0.66
6959.0,1.34,1.45,0.71
6961.0,1.45,1.45,0.75
6963.0,1.5,1.45,0.75
6965.0,1.5,1.45,0.77
6967.0,1.47,1.45,0.76
6969.0,1.48,1.45,0.77
6971.0,1.51,1.45,0.78
6973.0,1.52,1.45,0.8
6975.0,1.48,1.45,0.83
6977.0,1.49,1.45,0.84
6979.0,1.51,1.45,0.85
6981.0,1.53,1.45,0.86
6983.0,1.52,1.45,0.86
6985.0,1.48,1.45,0.87
6987.0,1.46,1.45,0.86
6989.0,1.44,1.45,0.87
6991.0,1.4,1.45,0.87
6993.0,1.36,1.45,0.88
6995.0,1.36,1.45,0.9
6998.0,1.37,1.45,0.91
7000.0,1.38,1.45,0.92
7001.0,1.4,1.45,0.93
7003.0,1.38,1.45,0.95
7005.0,1.35,1.45,0.97
7007.0,1.34,1.45,0.99
7009.0,1.34,1.45,1.0
7011.0,1.34,1.45,1.0
7013.0,1.35,1.45,0.99
7015.0,1.32,1.45,1.01
7017.0,1.27,1.45,1.04
7019.0,1.33,1.45,1.03
7021.0,1.37,1.45,1.03
7023.0,1.39,1.45,1.01
7025.0,1.38,1.45,1.01
7027.0,1.35,1.45,1.04
7029.0,1.38,1.45,1.03
7031.0,1.39,1.46,1.05
7033.0,1.38,1.46,1.08
7035.0,1.34,1.46,1.09
7037.0,1.34,1.46,1.11
7040.0,1.36,1.46,1.13
7042.0,1.36,1.45,1.14
7044.0,1.35,1.45,1.1
7045.0,1.34,1.45,1.08
7047.0,1.34,1.46,1.08
7049.0,1.37,1.45,1.09
7051.0,1.38,1.46,1.12
7053.0,1.39,1.46,1.1
7055.0,1.44,1.46,1.1
7057.0,1.53,1.46,1.11
7059.0,1.57,1.46,1.14
7061.0,1.57,1.46,1.14
7063.0,1.49,1.46,1.13
7065.0,1.51,1.46,1.14
7067.0,1.49,1.46,1.12
7069.0,1.39,1.46,1.12
7071.0,1.42,1.46,1.11
7073.0,1.42,1.46,1.12
7075.0,1.39,1.46,1.13
7077.0,1.38,1.46,1.15
7079.0,1.37,1.46,1.21
7081.0,1.39,1.46,1.21
7084.0,1.4,1.46,1.2
7086.0,1.38,1.46,1.19
7087.0,1.37,1.46,1.18
7089.0,1.36,1.46,1.15
7091.0,1.34,1.46,1.15
7093.0,1.3,1.46,1.15
7095.0,1.28,1.46,1.15
7097.0,1.27,1.46,1.15
7099.0,1.3,1.46,1.15
7101.0,1.33,1.46,1.11
7103.0,1.31,1.46,1.11
7105.0,1.27,1.46,1.11
7107.0,1.26,1.46,1.09
7109.0,1.27,1.46,1.09
7111.0,1.26,1.46,1.1
7113.0,1.23,1.46,1.1
7115.0,1.22,1.46,1.1
7117.0,1.22,1.46,1.11
7119.0,1.24,1.46,1.13
7121.0,1.25,1.46,1.13
7123.0,1.25,1.46,1.11
7126.0,1.24,1.46,1.11
7128.0,1.22,1.46,1.1
7129.0,1.28,1.46,1.11
7131.0,1.27,1.46,1.12
7133.0,1.25,1.46,1.11
7135.0,1.21,1.46,1.13
7137.0,1.21,1.46,1.16
7139.0,1.28,1.46,1.2
7141.0,1.3,1.46,1.22
7143.0,1.25,1.46,1.26
7145.0,1.31,1.46,1.26
7147.0,1.3,1.46,1.25
7149.0,1.27,1.46,1.22
7151.0,1.27,1.46,1.22
7153.0,1.28,1.46,1.24
7155.0,1.31,1.46,1.27
7157.0,1.34,1.46,1.3
7159.0,1.36,1.46,1.32
7161.0,1.35,1.46,1.33
7163.0,1.36,1.46,1.31
7165.0,1.35,1.46,1.3
7168.0,1.32,1.46,1.34
7170.0,1.32,1.46,1.35
7172.0,1.33,1.46,1.33
7173.0,1.31,1.46,1.33
7175.0,1.3,1.46,1.35
7177.0,1.3,1.46,1.37
7179.0,1.32,1.46,1.38
7181.0,1.34,1.46,1.39
7183.0,1.34,1.46,1.36
7185.0,1.32,1.46,1.31
7187.0,1.31,1.46,1.27
7189.0,1.29,1.46,1.28
7191.0,1.29,1.46,1.31
7193.0,1.28,1.46,1.3
7195.0,1.31,1.46,1.28
7197.0,1.37,1.46,1.31
7199.0,1.39,1.46,1.35
7201.0,1.39,1.46,1.35
7203.0,1.38,1.46,1.32
7205.0,1.39,1.46,1.3
7207.0,1.37,1.46,1.29
7209.0,1.32,1.46,1.3
7212.0,1.27,1.46,1.3
7214.0,1.33,1.46,1.29
7215.0,1.33,1.46,1.3
7217.0,1.33,1.46,1.31
7219.0,1.35,1.46,1.32
7221.0,1.38,1.46,1.32
7223.0,1.38,1.46,1.35
7225.0,1.38,1.46,1.36
7227.0,1.38,1.46,1.36
7229.0,1.37,1.46,1.38
7231.0,1.36,1.46,1.38
7233.0,1.36,1.46,1.36
7235.0,1.37,1.46,1.39
7237.0,1.36,1.46,1.41
7239.0,1.35,1.46,1.42
7241.0,1.37,1.46,1.43
7243.0,1.36,1.46,1.42
7245.0,1.34,1.46,1.41
7247.0,1.3,1.46,1.39
7249.0,1.26,1.46,1.38
7251.0,1.23,1.46,1.38
7254.0,1.2,1.46,1.37
7256.0,1.2,1.46,1.41
7257.0,1.2,1.46,1.45
7259.0,1.21,1.46,1.47
7261.0,1.24,1.46,1.47
7263.0,1.27,1.46,1.46
7265.0,1.26,1.46,1.47
7267.0,1.26,1.46,1.49
7269.0,1.26,1.46,1.46
7271.0,1.27,1.46,1.46
7273.0,1.26,1.46,1.44
7275.0,1.26,1.46,1.45
7277.0,1.29,1.46,1.47
7279.0,1.32,1.46,1.5
7281.0,1.35,1.46,1.51
7283.0,1.35,1.46,1.51
7285.0,1.34,1.46,1.54
7287.0,1.33,1.46,1.51
7289.0,1.32,1.46,1.49
7291.0,1.32,1.46,1.47
7293.0,1.33,1.46,1.44
7296.0,1.32,1.46,1.44
7298.0,1.31,1.46,1.43
7300.0,1.34,1.46,1.43
7301.0,1.37,1.46,1.42
7303.0,1.35,1.46,1.41
7305.0,1.35,1.45,1.41
7307.0,1.34,1.46,1.42
7309.0,1.34,1.46,1.41
7311.0,1.33,1.46,1.43
7313.0,1.34,1.46,1.44
7315.0,1.34,1.46,1.44
7317.0,1.35,1.46,1.45
7319.0,1.38,1.46,1.48
7321.0,1.41,1.46,1.46
7323.0,1.39,1.46,1.44
7325.0,1.38,1.46,1.39
7327.0,1.4,1.46,1.37
7329.0,1.41,1.46,1.35
7331.0,1.39,1.46,1.34
7333.0,1.36,1.46,1.31
7335.0,1.38,1.46,1.3
7337.0,1.39,1.46,1.31
7340.0,1.42,1.46,1.31
7342.0,1.46,1.45,1.32
7343.0,1.45,1.46,1.32
7345.0,1.43,1.46,1.31
7347.0,1.43,1.46,1.28
7349.0,1.43,1.46,1.26
7351.0,1.45,1.46,1.27
7353.0,1.47,1.46,1.26
7355.0,1.48,1.46,1.28
7357.0,1.49,1.46,1.31
7359.0,1.48,1.46,1.33
7361.0,1.48,1.46,1.33
7363.0,1.49,1.46,1.32
7365.0,1.46,1.46,1.29
7367.0,1.51,1.46,1.3
7369.0,1.52,1.46,1.3
7371.0,1.5,1.46,1.31
7373.0,1.5,1.46,1.31
7375.0,1.51,1.46,1.32
7377.0,1.48,1.46,1.34
7379.0,1.52,1.46,1.35
7382.0,1.56,1.45,1.35
7384.0,1.55,1.46,1.35
7385.0,1.53,1.46,1.38
7387.0,1.52,1.46,1.39
7389.0,1.51,1.46,1.39
7391.0,1.5,1.46,1.38
7393.0,1.5,1.46,1.37
7395.0,1.53,1.46,1.37
7397.0,1.55,1.46,1.39
7399.0,1.55,1.46,1.39
7401.0,1.55,1.46,1.39
7403.0,1.53,1.46,1.34
7405.0,1.49,1.45,1.31
7407.0,1.47,1.46,1.32
7409.0,1.49,1.46,1.34
7411.0,1.48,1.46,1.35
7413.0,1.43,1.46,1.33
7415.0,1.41,1.46,1.34
7417.0,1.43,1.46,1.35
7419.0,1.46,1.46,1.35
7421.0,1.48,1.45,1.36
7424.0,1.49,1.46,1.38
7426.0,1.49,1.46,1.39
7428.0,1.47,1.46,1.41
7429.0,1.42,1.46,1.41
7431.0,1.42,1.46,1.41
7433.0,1.41,1.46,1.41
7435.0,1.42,1.46,1.41
7437.0,1.43,1.46,1.39
7439.0,1.38,1.46,1.4
7441.0,1.36,1.45,1.39
7443.0,1.45,1.45,1.38
7445.0,1.47,1.45,1.36
7447.0,1.46,1.46,1.36
7449.0,1.47,1.46,1.38
7451.0,1.46,1.46,1.38
7453.0,1.46,1.46,1.36
7455.0,1.45,1.46,1.38
7457.0,1.43,1.46,1.38
7459.0,1.46,1.46,1.4
7461.0,1.47,1.45,1.39
7463.0,1.45,1.46,1.39
7465.0,1.43,1.46,1.39
7468.0,1.43,1.46,1.4
7470.0,1.44,1.46,1.4
7471.0,1.43,1.46,1.42
7473.0,1.41,1.46,1.42
7475.0,1.41,1.46,1.47
7477.0,1.4,1.46,1.49
7479.0,1.41,1.46,1.51
7481.0,1.41,1.45,1.51
7483.0,1.39,1.45,1.49
7485.0,1.39,1.46,1.46
7487.0,1.4,1.46,1.43
7489.0,1.4,1.46,1.43
7491.0,1.41,1.46,1.42
7493.0,1.42,1.46,1.42
7495.0,1.43,1.46,1.42
7497.0,1.43,1.46,1.43
7499.0,1.41,1.46,1.42
7501.0,1.4,1.45,1.42
7503.0,1.37,1.45,1.42
7505.0,1.35,1.46,1.41
7507.0,1.39,1.46,1.41
7510.0,1.39,1.46,1.39
7512.0,1.39,1.46,1.37
7513.0,1.39,1.46,1.38
7515.0,1.41,1.46,1.39
7517.0,1.42,1.46,1.38
7519.0,1.43,1.46,1.39
7521.0,1.41,1.46,1.4
7523.0,1.41,1.45,1.42
7525.0,1.38,1.46,1.43
7527.0,1.37,1.46,1.4
7529.0,1.37,1.46,1.4
7531.0,1.37,1.46,1.41
7533.0,1.37,1.46,1.4
7535.0,1.38,1.46,1.41
7537.0,1.41,1.46,1.43
7539.0,1.43,1.46,1.45
7541.0,1.44,1.46,1.44
7543.0,1.46,1.45,1.42
7545.0,1.45,1.45,1.44
7547.0,1.37,1.46,1.44
7549.0,1.39,1.46,1.46
7552.0,1.39,1.46,1.48
7554.0,1.37,1.46,1.48
7556.0,1.36,1.46,1.49
7557.0,1.35,1.46,1.5
7559.0,1.35,1.46,1.52
7561.0,1.36,1.45,1.51
7563.0,1.35,1.45,1.51
7565.0,1.35,1.46,1.51
7567.0,1.35,1.46,1.5
7569.0,1.34,1.46,1.5
7571.0,1.34,1.46,1.52
7573.0,1.37,1.46,1.5
7575.0,1.41,1.46,1.48
7577.0,1.42,1.46,1.51
7579.0,1.45,1.46,1.58
7581.0,1.46,1.45,1.61
7583.0,1.45,1.45,1.61
7585.0,1.44,1.46,1.6
7587.0,1.45,1.46,1.58
7589.0,1.45,1.46,1.56
7591.0,1.45,1.46,1.55
7593.0,1.48,1.46,1.54
7596.0,1.51,1.46,1.53
7598.0,1.52,1.46,1.52
7599.0,1.55,1.46,1.51
7601.0,1.54,1.45,1.51
7603.0,1.51,1.45,1.48
7605.0,1.51,1.45,1.46
7607.0,1.52,1.45,1.45
7609.0,1.51,1.46,1.42
7611.0,1.49,1.46,1.4
7613.0,1.5,1.46,1.4
7615.0,1.54,1.46,1.42
7617.0,1.55,1.46,1.45
7619.0,1.56,1.46,1.46
7621.0,1.55,1.45,1.42
7623.0,1.54,1.46,1.44
7625.0,1.52,1.46,1.45
7627.0,1.5,1.46,1.45
7629.0,1.48,1.46,1.47
7631.0,1.46,1.46,1.45
7633.0,1.43,1.46,1.41
7635.0,1.51,1.46,1.42
7638.0,1.51,1.46,1.41
7640.0,1.51,1.46,1.43
7641.0,1.53,1.45,1.44
7643.0,1.52,1.46,1.44
7645.0,1.49,1.46,1.44
7647.0,1.46,1.45,1.43
7649.0,1.45,1.46,1.41
7651.0,1.44,1.46,1.39
7653.0,1.42,1.46,1.4
7655.0,1.42,1.46,1.4
7657.0,1.42,1.46,1.4
7659.0,1.43,1.46,1.36
7661.0,1.4,1.45,1.34
7663.0,1.4,1.45,1.34
7665.0,1.4,1.46,1.35
7667.0,1.38,1.45,1.36
7669.0,1.34,1.46,1.39
7671.0,1.35,1.46,1.41
7673.0,1.32,1.46,1.42
7675.0,1.32,1.46,1.43
7677.0,1.33,1.46,1.44
7680.0,1.34,1.46,1.45
7682.0,1.35,1.45,1.45
7684.0,1.35,1.45,1.47
7685.0,1.33,1.46,1.44
7687.0,1.32,1.46,1.39
7689.0,1.3,1.46,1.36
7691.0,1.39,1.46,1.36
7693.0,1.44,1.46,1.37
7695.0,1.41,1.46,1.38
7697.0,1.39,1.46,1.41
7699.0,1.42,1.46,1.43
7701.0,1.43,1.45,1.41
7703.0,1.42,1.45,1.41
7705.0,1.39,1.46,1.41
7707.0,1.37,1.46,1.4
7709.0,1.35,1.46,1.37
7711.0,1.37,1.46,1.37
7713.0,1.36,1.46,1.38
7715.0,1.36,1.46,1.38
7717.0,1.32,1.46,1.37
7719.0,1.32,1.46,1.38
7721.0,1.37,1.45,1.37
7724.0,1.38,1.45,1.39
7726.0,1.34,1.46,1.39
7727.0,1.3,1.46,1.38
7729.0,1.32,1.46,1.37
7731.0,1.33,1.46,1.36
7733.0,1.32,1.46,1.37
7735.0,1.29,1.46,1.37
7737.0,1.29,1.46,1.39
7739.0,1.34,1.46,1.38
7741.0,1.35,1.46,1.38
7743.0,1.34,1.45,1.43
7745.0,1.34,1.45,1.45
7747.0,1.34,1.46,1.43
7749.0,1.35,1.46,1.43
7751.0,1.35,1.46,1.45
7753.0,1.34,1.46,1.45
7755.0,1.32,1.46,1.46
7757.0,1.36,1.46,1.45
7759.0,1.38,1.46,1.47
7761.0,1.37,1.45,1.47
7763.0,1.36,1.45,1.51
7766.0,1.35,1.45,1.48
7768.0,1.36,1.46,1.46
7769.0,1.43,1.46,1.45
7771.0,1.48,1.46,1.44
7773.0,1.45,1.46,1.42
7775.0,1.4,1.46,1.45
7777.0,1.37,1.46,1.47
7779.0,1.32,1.46,1.47
7781.0,1.27,1.45,1.45
7783.0,1.34,1.45,1.43
7785.0,1.32,1.46,1.43
7787.0,1.31,1.46,1.46
7789.0,1.27,1.46,1.48
7791.0,1.29,1.46,1.48
7793.0,1.28,1.46,1.47
7795.0,1.31,1.46,1.52
7797.0,1.31,1.46,1.55
7799.0,1.33,1.45,1.52
7801.0,1.33,1.45,1.5
7803.0,1.32,1.45,1.49
7805.0,1.32,1.46,1.49
7808.0,1.32,1.46,1.5
7810.0,1.3,1.46,1.51
7812.0,1.34,1.46,1.5
7813.0,1.35,1.46,1.48
7815.0,1.37,1.46,1.47
7817.0,1.4,1.45,1.47
7819.0,1.41,1.46,1.49
7821.0,1.4,1.45,1.48
7823.0,1.38,1.45,1.45
7825.0,1.37,1.45,1.45
7827.0,1.37,1.46,1.45
7829.0,1.36,1.46,1.42
7831.0,1.33,1.46,1.42
7833.0,1.31,1.46,1.44
7835.0,1.35,1.46,1.44
7837.0,1.39,1.46,1.44
7839.0,1.44,1.45,1.45
7841.0,1.46,1.46,1.45
7843.0,1.46,1.45,1.41
7845.0,1.45,1.45,1.41
7847.0,1.45,1.46,1.41
7849.0,1.43,1.46,1.41
7852.0,1.41,1.46,1.4
7854.0,1.39,1.46,1.4
7855.0,1.4,1.46,1.42
7857.0,1.41,1.46,1.43
7859.0,1.45,1.46,1.44
7861.0,1.5,1.45,1.46
7863.0,1.56,1.46,1.48
7865.0,1.53,1.46,1.49
7867.0,1.49,1.45,1.46
7869.0,1.5,1.46,1.43
7871.0,1.54,1.46,1.42
7873.0,1.53,1.46,1.44
7875.0,1.48,1.46,1.5
7877.0,1.45,1.46,1.54
7879.0,1.46,1.46,1.57
7881.0,1.44,1.45,1.57
7883.0,1.44,1.45,1.57
7885.0,1.42,1.46,1.55
7887.0,1.41,1.46,1.51
7889.0,1.38,1.46,1.5
7891.0,1.36,1.46,1.45
7894.0,1.38,1.46,1.43
7896.0,1.38,1.46,1.44
7897.0,1.44,1.46,1.43
7899.0,1.5,1.46,1.48
7901.0,1.49,1.45,1.47
7903.0,1.46,1.45,1.45
7905.0,1.42,1.45,1.45
7907.0,1.41,1.45,1.46
7909.0,1.42,1.46,1.46
7911.0,1.44,1.46,1.45
7913.0,1.45,1.46,1.44
7915.0,1.45,1.46,1.45
7917.0,1.44,1.46,1.48
7919.0,1.47,1.46,1.48
7921.0,1.5,1.46,1.47
7923.0,1.48,1.45,1.46
7925.0,1.5,1.45,1.46
7927.0,1.51,1.46,1.44
7929.0,1.48,1.46,1.45
7931.0,1.48,1.46,1.46
7933.0,1.46,1.46,1.46
7936.0,1.44,1.46,1.45
7938.0,1.45,1.46,1.47
7940.0,1.44,1.46,1.48
7941.0,1.43,1.45,1.49
7943.0,1.4,1.45,1.46
7945.0,1.38,1.45,1.46
7947.0,1.4,1.46,1.47
7949.0,1.41,1.46,1.51
7951.0,1.41,1.46,1.51
7953.0,1.39,1.46,1.5
7955.0,1.39,1.46,1.48
7957.0,1.39,1.46,1.49
7959.0,1.4,1.46,1.49
7961.0,1.42,1.45,1.46
7963.0,1.4,1.45,1.46
7965.0,1.4,1.45,1.45
7967.0,1.36,1.46,1.46
7969.0,1.35,1.46,1.45
7971.0,1.36,1.46,1.44
7973.0,1.36,1.46,1.43
7975.0,1.35,1.46,1.44
7977.0,1.35,1.46,1.46
7980.0,1.38,1.46,1.49
7982.0,1.39,1.45,1.49
7983.0,1.37,1.45,1.45
7985.0,1.38,1.46,1.42
7987.0,1.37,1.46,1.41
7989.0,1.36,1.46,1.39
7991.0,1.37,1.46,1.36
7993.0,1.38,1.46,1.4
7995.0,1.42,1.46,1.43
7997.0,1.44,1.46,1.43
7999.0,1.44,1.45,1.41
8001.0,1.44,1.45,1.43
8003.0,1.47,1.45,1.41
8005.0,1.46,1.45,1.42
8007.0,1.45,1.46,1.41
8009.0,1.46,1.46,1.39
8011.0,1.45,1.46,1.36
8013.0,1.46,1.46,1.36
8015.0,1.5,1.46,1.36
8017.0,1.5,1.46,1.37
8019.0,1.44,1.46,1.4
8022.0,1.33,1.45,1.41
8024.0,1.33,1.45,1.42
8025.0,1.32,1.45,1.45
8027.0,1.31,1.45,1.48
8029.0,1.29,1.46,1.5
8031.0,1.29,1.46,1.49
8033.0,1.3,1.46,1.46
8035.0,1.32,1.46,1.44
8037.0,1.32,1.46,1.46
8039.0,1.31,1.46,1.47
8041.0,1.29,1.45,1.48
8043.0,1.31,1.45,1.46
8045.0,1.36,1.45,1.45
8047.0,1.36,1.46,1.44
8049.0,1.33,1.46,1.42
8051.0,1.33,1.46,1.41
8053.0,1.33,1.46,1.38
8055.0,1.35,1.46,1.36
8057.0,1.36,1.46,1.36
8059.0,1.37,1.46,1.36
8061.0,1.38,1.45,1.35
8064.0,1.39,1.45,1.35
8066.0,1.39,1.45,1.37
8068.0,1.39,1.45,1.37
8069.0,1.4,1.46,1.37
8071.0,1.38,1.46,1.36
8073.0,1.38,1.46,1.39
8075.0,1.4,1.46,1.42
8077.0,1.42,1.46,1.39
8079.0,1.36,1.45,1.39
8081.0,1.42,1.45,1.41
8083.0,1.5,1.45,1.44
8085.0,1.49,1.45,1.42
8087.0,1.48,1.45,1.4
8089.0,1.47,1.46,1.43
8091.0,1.44,1.46,1.43
8093.0,1.51,1.46,1.43
8095.0,1.64,1.46,1.47
8097.0,1.64,1.46,1.48
8099.0,1.63,1.45,1.48
8101.0,1.65,1.45,1.48
8103.0,1.63,1.45,1.49
8105.0,1.59,1.45,1.51
8108.0,1.55,1.45,1.52
8110.0,1.52,1.46,1.5
8111.0,1.48,1.46,1.5
8113.0,1.48,1.46,1.5
8115.0,1.53,1.46,1.47
8117.0,1.56,1.46,1.45
8119.0,1.55,1.46,1.44
8121.0,1.51,1.45,1.42
8123.0,1.46,1.45,1.41
8125.0,1.47,1.45,1.4
8127.0,1.46,1.46,1.42
8129.0,1.44,1.46,1.4
8131.0,1.44,1.46,1.4
8133.0,1.45,1.46,1.42
8135.0,1.45,1.46,1.41
8137.0,1.46,1.46,1.43
8139.0,1.48,1.45,1.43
8141.0,1.48,1.45,1.43
8143.0,1.47,1.46,1.42
8145.0,1.47,1.46,1.4
8147.0,1.47,1.46,1.39
8150.0,1.47,1.46,1.4
8152.0,1.43,1.46,1.36
8154.0,1.38,1.46,1.35
8155.0,1.44,1.46,1.36
8157.0,1.46,1.46,1.38
8159.0,1.49,1.45,1.38
8161.0,1.47,1.45,1.34
8163.0,1.46,1.45,1.34
8165.0,1.46,1.46,1.36
8167.0,1.64,1.46,1.38
8169.0,1.57,1.46,1.38
8171.0,1.46,1.46,1.36
8173.0,1.43,1.46,1.39
8175.0,1.43,1.46,1.41
8177.0,1.44,1.46,1.41
8179.0,1.43,1.45,1.43
8181.0,1.4,1.45,1.42
8183.0,1.39,1.45,1.43
8185.0,1.36,1.46,1.45
8187.0,1.35,1.46,1.46
8189.0,1.34,1.46,1.44
8192.0,1.33,1.46,1.43
8194.0,1.32,1.46,1.42
8196.0,1.33,1.46,1.41
8197.0,1.35,1.46,1.43
8199.0,1.37,1.45,1.46
8201.0,1.38,1.46,1.45
8203.0,1.39,1.45,1.44
8205.0,1.37,1.45,1.43
8207.0,1.36,1.46,1.45
8209.0,1.35,1.46,1.46
8211.0,1.34,1.46,1.45
8213.0,1.34,1.46,1.45
8215.0,1.35,1.46,1.45
8217.0,1.4,1.46,1.45
8219.0,1.41,1.45,1.45
8221.0,1.4,1.45,1.46
8223.0,1.43,1.45,1.47
8225.0,1.43,1.45,1.48
8227.0,1.41,1.46,1.46
8229.0,1.4,1.46,1.45
8231.0,1.37,1.46,1.46
8233.0,1.37,1.46,1.49
8236.0,1.4,1.46,1.5
8238.0,1.43,1.46,1.51
8239.0,1.45,1.46,1.49
8241.0,1.45,1.46,1.47
8243.0,1.44,1.45,1.44
8245.0,1.44,1.46,1.42
8247.0,1.44,1.46,1.41
8249.0,1.43,1.46,1.42
8251.0,1.43,1.46,1.42
8253.0,1.44,1.46,1.44
8255.0,1.45,1.46,1.45
8257.0,1.47,1.46,1.45
8259.0,1.47,1.45,1.45
8261.0,1.47,1.45,1.44
8263.0,1.47,1.45,1.42
8265.0,1.46,1.46,1.45
8267.0,1.45,1.46,1.46
8269.0,1.42,1.46,1.48
8271.0,1.4,1.46,1.47
8273.0,1.4,1.46,1.47
8275.0,1.45,1.46,1.47
8278.0,1.49,1.46,1.47
8280.0,1.5,1.45,1.46
8282.0,1.55,1.45,1.48
8283.0,1.53,1.45,1.46
8285.0,1.46,1.46,1.47
8287.0,1.45,1.45,1.47
8289.0,1.43,1.46,1.47
8291.0,1.41,1.46,1.47
8293.0,1.4,1.46,1.47
8295.0,1.42,1.46,1.48
8297.0,1.42,1.46,1.51
8299.0,1.42,1.45,1.51
8301.0,1.43,1.45,1.5
8303.0,1.43,1.45,1.48
8305.0,1.43,1.46,1.47
8307.0,1.43,1.46,1.48
8309.0,1.44,1.46,1.47
8311.0,1.44,1.46,1.45
8313.0,1.44,1.46,1.46
8315.0,1.44,1.46,1.46
8317.0,1.44,1.46,1.48
8320.0,1.46,1.46,1.48
8322.0,1.46,1.45,1.46
8324.0,1.46,1.45,1.45
8325.0,1.46,1.45,1.45
8327.0,1.46,1.46,1.45
8329.0,1.45,1.46,1.45
8331.0,1.46,1.46,1.45
8333.0,1.49,1.46,1.45
8335.0,1.51,1.46,1.45
8337.0,1.55,1.46,1.46
8339.0,1.57,1.45,1.46
8341.0,1.52,1.45,1.44
8343.0,1.54,1.46,1.43
8345.0,1.56,1.45,1.43
8347.0,1.55,1.46,1.4
8349.0,1.5,1.46,1.38
8351.0,1.49,1.46,1.39
8353.0,1.5,1.46,1.42
8355.0,1.52,1.46,1.43
8357.0,1.54,1.46,1.44
8359.0,1.5,1.46,1.45
8361.0,1.51,1.45,1.45
8364.0,1.52,1.46,1.45
8366.0,1.5,1.46,1.46
8367.0,1.5,1.46,1.46
8369.0,1.48,1.46,1.47
8371.0,1.47,1.46,1.46
8373.0,1.49,1.46,1.49
8375.0,1.51,1.46,1.51
8377.0,1.52,1.46,1.52
8379.0,1.53,1.46,1.52
8381.0,1.52,1.45,1.5
8383.0,1.5,1.45,1.48
8385.0,1.5,1.45,1.47
8387.0,1.5,1.46,1.46
8389.0,1.48,1.46,1.44
8391.0,1.44,1.46,1.45
8393.0,1.43,1.46,1.47
8395.0,1.43,1.46,1.48
8397.0,1.44,1.46,1.49
8399.0,1.44,1.46,1.47
8401.0,1.41,1.45,1.44
8403.0,1.41,1.46,1.44
8406.0,1.41,1.45,1.43
8408.0,1.4,1.46,1.41
8410.0,1.39,1.46,1.41
8411.0,1.37,1.46,1.43
8413.0,1.35,1.46,1.46
8415.0,1.36,1.46,1.49
8417.0,1.43,1.46,1.52
8419.0,1.47,1.46,1.52
8421.0,1.46,1.45,1.52
8423.0,1.44,1.45,1.54
8425.0,1.44,1.46,1.54
8427.0,1.43,1.46,1.53
8429.0,1.42,1.46,1.52
8431.0,1.43,1.46,1.48
8433.0,1.46,1.46,1.49
8435.0,1.45,1.46,1.48
8437.0,1.45,1.46,1.47
8439.0,1.44,1.46,1.46
8441.0,1.42,1.45,1.45
8443.0,1.4,1.45,1.45
8445.0,1.38,1.45,1.45
8448.0,1.38,1.45,1.45
8450.0,1.36,1.46,1.48
8452.0,1.35,1.46,1.5
8453.0,1.35,1.46,1.52
8455.0,1.35,1.46,1.54
8457.0,1.35,1.46,1.56
8459.0,1.36,1.45,1.58
8461.0,1.38,1.45,1.56
8463.0,1.37,1.45,1.54
8465.0,1.36,1.45,1.45
8467.0,1.38,1.46,1.39
8469.0,1.39,1.46,1.4
8471.0,1.37,1.46,1.43
8473.0,1.41,1.46,1.47
8475.0,1.41,1.46,1.48
8477.0,1.41,1.46,1.5
8479.0,1.4,1.45,1.5
8481.0,1.38,1.45,1.5
8483.0,1.38,1.45,1.52
8485.0,1.39,1.46,1.51
8487.0,1.41,1.46,1.5
8489.0,1.4,1.46,1.48
8492.0,1.4,1.46,1.48
8494.0,1.42,1.46,1.5
8495.0,1.44,1.46,1.51
8497.0,1.44,1.46,1.54
8499.0,1.44,1.45,1.55
8501.0,1.45,1.45,1.55
8503.0,1.45,1.45,1.57
8505.0,1.44,1.45,1.54
8507.0,1.42,1.45,1.5
8509.0,1.4,1.46,1.47
8511.0,1.41,1.46,1.46
8513.0,1.51,1.46,1.44
8515.0,1.54,1.46,1.4
8517.0,1.47,1.46,1.4
8519.0,1.45,1.45,1.38
8521.0,1.44,1.45,1.33
8523.0,1.42,1.45,1.31
8525.0,1.42,1.45,1.34
8527.0,1.43,1.45,1.32
8529.0,1.44,1.46,1.31
8531.0,1.44,1.46,1.33
8534.0,1.42,1.46,1.39
8536.0,1.42,1.46,1.41
8538.0,1.42,1.45,1.44
8539.0,1.44,1.45,1.45
8541.0,1.42,1.45,1.44
8543.0,1.44,1.45,1.41
8545.0,1.42,1.45,1.42
8547.0,1.41,1.45,1.4
8549.0,1.41,1.46,1.4
8551.0,1.41,1.46,1.41
8553.0,1.44,1.46,1.44
8555.0,1.45,1.46,1.47
8557.0,1.47,1.46,1.45
8559.0,1.48,1.45,1.42
8561.0,1.47,1.45,1.41
8563.0,1.45,1.45,1.41
8565.0,1.46,1.45,1.41
8567.0,1.45,1.46,1.42
8569.0,1.43,1.46,1.44
8571.0,1.44,1.46,1.44
8573.0,1.43,1.46,1.44
8576.0,1.47,1.46,1.45
8578.0,1.5,1.46,1.47
8580.0,1.52,1.45,1.45
8581.0,1.5,1.45,1.44
8583.0,1.51,1.45,1.41
8585.0,1.49,1.45,1.41
8587.0,1.47,1.46,1.39
8589.0,1.49,1.46,1.35
8591.0,1.5,1.46,1.31
8593.0,1.5,1.46,1.28
8595.0,1.48,1.46,1.28
8597.0,1.49,1.45,1.26
8599.0,1.49,1.45,1.26
8601.0,1.47,1.45,1.27
8603.0,1.46,1.45,1.28
8605.0,1.56,1.45,1.27
8607.0,1.48,1.45,1.25
8609.0,1.44,1.46,1.24
8611.0,1.43,1.46,1.23
8613.0,1.43,1.46,1.24
8615.0,1.44,1.46,1.27
8617.0,1.43,1.45,1.3
8620.0,1.43,1.45,1.32
8622.0,1.45,1.45,1.31
8623.0,1.45,1.45,1.31
8625.0,1.44,1.45,1.32
8627.0,1.43,1.45,1.32
8629.0,1.42,1.46,1.32
8631.0,1.4,1.46,1.31
8633.0,1.39,1.46,1.31
8635.0,1.41,1.46,1.32
8637.0,1.45,1.45,1.35
8639.0,1.46,1.45,1.36
8641.0,1.58,1.45,1.36
8643.0,1.55,1.45,1.36
8645.0,1.48,1.45,1.38
8647.0,1.44,1.46,1.38
8649.0,1.42,1.46,1.38
8651.0,1.44,1.46,1.36
8653.0,1.43,1.46,1.36
8655.0,1.43,1.46,1.35
8657.0,1.41,1.45,1.37
8659.0,1.42,1.45,1.38
8662.0,1.42,1.45,1.36
8664.0,1.42,1.45,1.33
8666.0,1.43,1.45,1.34
8667.0,1.39,1.46,1.35
8669.0,1.41,1.46,1.34
8671.0,1.43,1.46,1.35
8673.0,1.45,1.46,1.38
8675.0,1.45,1.46,1.38
8677.0,1.44,1.45,1.39
8679.0,1.46,1.45,1.36
8681.0,1.47,1.45,1.39
8683.0,1.54,1.45,1.4
8685.0,1.55,1.45,1.39
8687.0,1.46,1.45,1.38
8689.0,1.45,1.46,1.37
8691.0,1.44,1.46,1.37
8693.0,1.44,1.46,1.39
8695.0,1.46,1.46,1.4
8697.0,1.47,1.45,1.44
8699.0,1.47,1.45,1.51
8701.0,1.53,1.45,1.57
8704.0,1.47,1.45,1.59
8706.0,1.45,1.45,1.58
8708.0,1.38,1.45,1.57
8709.0,1.32,1.46,1.56
8711.0,1.28,1.46,1.53
8713.0,1.26,1.46,1.5
8715.0,1.3,1.46,1.47
8717.0,1.23,1.45,1.43
8719.0,1.08,1.45,1.38
8721.0,1.02,1.45,1.35
8723.0,1.06,1.45,1.32
8725.0,1.05,1.45,1.32
8727.0,1.06,1.45,1.29
8729.0,1.11,1.46,1.24
8731.0,1.08,1.46,1.16
8733.0,1.05,1.46,1.11
8735.0,1.04,1.46,1.04
8737.0,1.04,1.45,0.93
8739.0,1.05,1.45,0.58
8741.0,1.03,1.45,0.28
8743.0,0.92,1.45,0.0
8745.0,0.97,1.45,0.0
8748.0,1.04,1.45,0.0
8750.0,1.03,1.46,0.0
8751.0,0.94,1.46,0.0
8753.0,0.93,1.46,0.0
8755.0,0.94,1.46,0.0
8757.0,0.95,1.45,0.0
8759.0,0.96,1.45,0.0
8761.0,0.92,1.45,0.0
8763.0,0.91,1.45,0.0
8765.0,0.94,1.45,0.0
8767.0,0.97,1.45,0.0
8769.0,1.0,1.46,0.0
8771.0,0.98,1.46,0.0
8773.0,1.02,1.46,0.0
8775.0,1.05,1.46,0.0
8777.0,1.06,1.45,0.0
8779.0,1.09,1.45,0.0
8781.0,1.14,1.45,0.0
8783.0,1.19,1.45,0.0
8785.0,1.21,1.45,0.0
8787.0,1.22,1.46,0.0
8790.0,1.24,1.46,0.0
8792.0,1.29,1.46,0.0
8794.0,1.34,1.46,0.0
8795.0,1.4,1.46,0.0
8797.0,1.42,1.46,0.0
8799.0,1.48,1.45,0.0
8801.0,1.49,1.45,0.0
8803.0,1.49,1.45,0.0
8805.0,1.48,1.45,0.0
8807.0,1.48,1.46,0.0
8809.0,1.49,1.46,0.0
8811.0,1.53,1.46,0.0
8813.0,1.54,1.46,0.0
8815.0,1.59,1.46,0.0
8817.0,1.61,1.46,0.0
8819.0,1.6,1.46,0.0
8821.0,1.61,1.46,0.0
8823.0,1.62,1.46,0.0
8825.0,1.61,1.46,0.0
8827.0,1.6,1.46,0.0
8829.0,1.59,1.46,0.0
8832.0,1.6,1.46,0.0
8834.0,1.61,1.47,0.0
8836.0,1.63,1.47,0.0
8837.0,1.65,1.47,0.0
8839.0,1.65,1.47,0.06
8841.0,1.65,1.47,0.17
8843.0,1.68,1.47,0.27
8845.0,1.66,1.47,0.37
8847.0,1.66,1.47,0.39
8849.0,1.64,1.47,0.49
8851.0,1.63,1.47,0.59
8853.0,1.63,1.47,0.68
8855.0,1.65,1.47,0.73
8857.0,1.7,1.46,0.82
8859.0,1.68,1.46,0.87
8861.0,1.7,1.46,0.93
8863.0,1.75,1.46,0.99
8865.0,1.68,1.46,1.05
8867.0,1.65,1.46,1.11
8869.0,1.65,1.46,1.12
8871.0,1.64,1.46,1.11
8873.0,1.65,1.46,1.13
8876.0,1.66,1.46,1.15
8878.0,1.66,1.46,1.17
8879.0,1.68,1.46,1.14
8881.0,1.65,1.46,1.13
8883.0,1.64,1.46,1.23
8885.0,1.64,1.46,1.27
8887.0,1.64,1.46,1.33
8889.0,1.64,1.46,1.42
8891.0,1.63,1.46,1.48
8893.0,1.65,1.46,1.52
8895.0,1.67,1.46,1.57
8897.0,1.69,1.45,1.59
8899.0,1.68,1.45,1.59
8901.0,1.66,1.45,1.59
8903.0,1.65,1.45,1.61
8905.0,1.62,1.45,1.65
8907.0,1.6,1.45,1.68
8909.0,1.6,1.45,1.71
8911.0,1.59,1.45,1.73
8913.0,1.59,1.46,1.77
8915.0,1.6,1.46,1.81
8918.0,1.58,1.46,1.84
8920.0,1.56,1.46,1.83
8922.0,1.55,1.45,1.79
8923.0,1.54,1.46,1.77
8925.0,1.52,1.46,1.78
8927.0,1.48,1.46,1.84
8929.0,1.47,1.46,1.88
8931.0,1.48,1.46,1.91
8933.0,1.51,1.46,1.95
8935.0,1.53,1.46,1.97
8937.0,1.54,1.46,1.99
8939.0,1.55,1.46,1.99
8941.0,1.55,1.46,2.02
8943.0,1.56,1.46,2.04
8945.0,1.56,1.46,2.05
8947.0,1.54,1.46,2.03
8949.0,1.53,1.46,2.02
8951.0,1.55,1.46,2.01
8953.0,1.55,1.46,2.04
8955.0,1.57,1.46,2.07
8957.0,1.57,1.46,2.09
8960.0,1.57,1.46,2.09
8962.0,1.56,1.46,2.09
8964.0,1.55,1.46,2.08
8965.0,1.52,1.46,2.06
8967.0,1.5,1.46,2.05
8969.0,1.52,1.46,2.04
8971.0,1.52,1.46,2.05
8973.0,1.53,1.46,2.08
8975.0,1.55,1.46,2.12
8977.0,1.62,1.46,2.16
8979.0,1.67,1.46,2.2
8981.0,1.7,1.46,2.22
8983.0,1.68,1.46,2.22
8985.0,1.65,1.46,2.25
8987.0,1.62,1.46,2.3
8989.0,1.61,1.46,2.32
8991.0,1.56,1.46,2.35
8993.0,1.58,1.47,2.39
8995.0,1.62,1.46,2.43
8997.0,1.63,1.46,2.5
8999.0,1.62,1.46,2.56
9001.0,1.61,1.46,2.61
9004.0,1.58,1.46,2.69
9006.0,1.56,1.46,2.74
9007.0,1.54,1.46,2.8
9009.0,1.65,1.46,2.86
9011.0,1.69,1.46,2.93
9013.0,1.62,1.46,2.98
9015.0,1.6,1.46,3.05
9017.0,1.61,1.46,3.13
9019.0,1.59,1.46,3.19
9021.0,1.59,1.46,3.22
9023.0,1.59,1.46,3.22
9025.0,1.58,1.46,3.24
9027.0,1.53,1.46,3.28
9029.0,1.49,1.46,3.28
9031.0,1.55,1.46,3.3
9033.0,1.6,1.46,3.3
9035.0,1.63,1.46,3.3
9037.0,1.63,1.46,3.3
9039.0,1.64,1.46,3.3
9041.0,1.63,1.46,3.3
9043.0,1.66,1.46,3.3
9046.0,1.65,1.46,3.3
9048.0,1.61,1.46,3.3
9050.0,1.56,1.46,3.3
9051.0,1.51,1.46,3.3
9053.0,1.56,1.46,3.3
9055.0,1.55,1.46,3.3
9057.0,1.53,1.46,3.3
9059.0,1.56,1.46,3.3
9061.0,1.59,1.46,3.3
9063.0,1.57,1.46,3.3
9065.0,1.62,1.46,3.3
9067.0,1.72,1.46,3.3
9069.0,1.78,1.46,3.3
9071.0,1.77,1.46,3.3
9073.0,1.8,1.46,3.3
9075.0,1.8,1.46,3.3
9077.0,1.81,1.46,3.3
9079.0,1.78,1.45,3.3
9081.0,1.74,1.45,3.3
9083.0,1.71,1.45,3.3
9085.0,1.7,1.45,3.3
9088.0,1.66,1.45,3.3
9090.0,1.69,1.45,3.3
9092.0,1.86,1.45,3.3
9093.0,1.89,1.45,3.3
9095.0,1.85,1.45,3.3
9097.0,1.74,1.45,3.3
9099.0,1.65,1.45,3.3
9101.0,1.62,1.45,3.3
9103.0,1.6,1.45,3.3
9105.0,1.57,1.45,3.3
9107.0,1.54,1.45,3.3
9109.0,1.52,1.45,3.3
9111.0,1.51,1.45,3.3
9113.0,1.5,1.45,3.3
9115.0,1.47,1.45,3.3
9117.0,1.51,1.45,3.3
9119.0,1.58,1.45,3.3
9121.0,1.59,1.45,3.3
9123.0,1.55,1.45,3.3
9125.0,1.53,1.45,3.26
9127.0,1.52,1.45,3.21
9129.0,1.49,1.45,3.17
9132.0,1.45,1.45,3.14
9134.0,1.44,1.45,3.1
9135.0,1.46,1.45,3.04
9137.0,1.5,1.45,3.03
9139.0,1.5,1.45,2.97
9141.0,1.5,1.45,2.91
9143.0,1.52,1.45,2.85
9145.0,1.53,1.45,2.78
9147.0,1.51,1.45,2.69
9149.0,1.5,1.45,2.54
9151.0,1.49,1.45,2.41
9153.0,1.48,1.45,2.34
9155.0,1.49,1.45,2.3
9157.0,1.5,1.45,2.37
9159.0,1.5,1.45,2.32
9161.0,1.53,1.45,2.22
9163.0,1.54,1.45,2.24
9165.0,1.59,1.45,2.21
9167.0,1.62,1.45,2.15
9169.0,1.61,1.45,2.07
9171.0,1.59,1.45,2.01
9174.0,1.63,1.45,1.98
9176.0,1.66,1.45,1.94
9178.0,1.68,1.45,1.9
9179.0,1.69,1.45,1.81
9181.0,1.66,1.45,1.74
9183.0,1.64,1.45,1.66
9185.0,1.6,1.45,1.62
9187.0,1.56,1.45,1.6
9189.0,1.52,1.45,1.54
9191.0,1.45,1.45,1.49
9193.0,1.42,1.45,1.47
9195.0,1.39,1.45,1.42
9197.0,1.32,1.45,1.35
9199.0,1.34,1.45,1.3
9201.0,1.35,1.45,1.23
9203.0,1.37,1.45,1.18
9205.0,1.36,1.45,1.12
9207.0,1.36,1.45,1.1
9209.0,1.38,1.45,1.07
9211.0,1.4,1.45,1.04
9213.0,1.44,1.45,1.03
9216.0,1.48,1.45,1.01
9218.0,1.49,1.45,1.01
9220.0,1.47,1.45,0.97
9221.0,1.44,1.45,0.92
9223.0,1.41,1.45,0.87
9225.0,1.38,1.45,0.85
9227.0,1.35,1.45,0.85
9229.0,1.33,1.45,0.84
9231.0,1.35,1.45,0.81
9233.0,1.33,1.45,0.8
9235.0,1.31,1.45,0.78
9237.0,1.32,1.45,0.78
9239.0,1.33,1.45,0.75
9241.0,1.31,1.45,0.73
9243.0,1.3,1.45,0.71
9245.0,1.29,1.45,0.7
9247.0,1.29,1.45,0.68
9249.0,1.29,1.45,0.66
9251.0,1.3,1.45,0.64
9253.0,1.35,1.45,0.67
9255.0,1.36,1.45,0.72
9257.0,1.46,1.45,0.74
9260.0,1.43,1.45,0.73
9262.0,1.39,1.45,0.7
9263.0,1.35,1.45,0.68
9265.0,1.32,1.45,0.68
9267.0,1.31,1.45,0.67
9269.0,1.28,1.45,0.66
9271.0,1.3,1.45,0.67
9273.0,1.39,1.45,0.7
9275.0,1.41,1.45,0.72
9277.0,1.33,1.45,0.74
9279.0,1.24,1.45,0.74
9281.0,1.22,1.45,0.75
9283.0,1.2,1.45,0.75
9285.0,1.25,1.45,0.75
9287.0,1.25,1.45,0.75
9289.0,1.2,1.45,0.73
9291.0,1.18,1.45,0.73
9293.0,1.18,1.45,0.72
9295.0,1.15,1.45,0.72
9297.0,1.18,1.45,0.73
9299.0,1.21,1.45,0.73
9302.0,1.2,1.45,0.75
9304.0,1.2,1.45,0.76
9306.0,1.19,1.45,0.75
9307.0,1.19,1.45,0.73
9309.0,1.19,1.45,0.66
9311.0,1.18,1.45,0.66
9313.0,1.17,1.45,0.71
9315.0,1.25,1.45,0.74
9317.0,1.31,1.45,0.79
9319.0,1.32,1.45,0.82
9321.0,1.33,1.45,0.83
9323.0,1.32,1.45,0.84
9325.0,1.3,1.45,0.84
9327.0,1.29,1.45,0.83
9329.0,1.26,1.45,0.81
9331.0,1.26,1.45,0.84
9333.0,1.3,1.45,0.82
9335.0,1.34,1.45,0.78
9337.0,1.34,1.45,0.76
9339.0,1.35,1.45,0.77
9341.0,1.34,1.45,0.8
9344.0,1.32,1.45,0.82
9346.0,1.31,1.45,0.81
9348.0,1.31,1.45,0.81
9349.0,1.31,1.45,0.81
9351.0,1.32,1.45,0.85
9353.0,1.32,1.45,0.89
9355.0,1.34,1.45,0.95
9357.0,1.34,1.45,0.95
9359.0,1.33,1.45,0.94
9361.0,1.33,1.45,0.92
9363.0,1.32,1.45,0.93
9365.0,1.32,1.45,0.95
9367.0,1.32,1.45,0.96
9369.0,1.32,1.45,0.94
9371.0,1.32,1.46,0.94
9373.0,1.32,1.45,0.94
9375.0,1.32,1.45,0.94
9377.0,1.33,1.45,0.97
9379.0,1.34,1.45,0.99
9381.0,1.32,1.45,1.0
9383.0,1.3,1.45,1.0
9385.0,1.28,1.45,1.01
9388.0,1.27,1.45,1.03
9390.0,1.26,1.46,1.02
9392.0,1.25,1.46,1.03
9393.0,1.26,1.46,1.03
9395.0,1.28,1.46,1.05
9397.0,1.27,1.45,1.06
9399.0,1.28,1.45,1.05
9401.0,1.32,1.45,1.06
9403.0,1.35,1.45,1.06
9405.0,1.36,1.45,1.07
9407.0,1.33,1.45,1.1
9409.0,1.35,1.46,1.13
9411.0,1.37,1.46,1.13
9413.0,1.41,1.46,1.15
9415.0,1.42,1.46,1.15
9417.0,1.42,1.45,1.14
9419.0,1.41,1.45,1.12
9421.0,1.4,1.45,1.13
9423.0,1.4,1.45,1.13
9425.0,1.39,1.45,1.15
9427.0,1.37,1.46,1.15
9430.0,1.36,1.46,1.17
9432.0,1.42,1.46,1.15
9434.0,1.44,1.46,1.15
9435.0,1.43,1.46,1.16
9437.0,1.44,1.46,1.19
9439.0,1.43,1.45,1.21
9441.0,1.41,1.45,1.21
9443.0,1.37,1.46,1.22
9445.0,1.36,1.46,1.22
9447.0,1.37,1.46,1.23
9449.0,1.38,1.46,1.24
9451.0,1.39,1.46,1.35
9453.0,1.41,1.46,1.42
9455.0,1.42,1.46,1.39
9457.0,1.41,1.46,1.36
9459.0,1.37,1.46,1.33
9461.0,1.41,1.45,1.3
9463.0,1.42,1.46,1.27
9465.0,1.41,1.46,1.28
9467.0,1.41,1.46,1.27
9469.0,1.4,1.46,1.26
9472.0,1.4,1.46,1.28
9474.0,1.4,1.46,1.3
9476.0,1.41,1.46,1.33
9477.0,1.42,1.46,1.34
9479.0,1.42,1.46,1.34
9481.0,1.41,1.46,1.34
9483.0,1.4,1.46,1.34
9485.0,1.38,1.46,1.31
9487.0,1.39,1.46,1.28
9489.0,1.39,1.46,1.28
9491.0,1.4,1.46,1.31
9493.0,1.39,1.46,1.33
9495.0,1.39,1.46,1.33
9497.0,1.38,1.46,1.33
9499.0,1.37,1.46,1.32
9501.0,1.39,1.46,1.34
9503.0,1.39,1.46,1.36
9505.0,1.38,1.46,1.37
9507.0,1.39,1.46,1.36
9509.0,1.4,1.46,1.35
9511.0,1.43,1.46,1.35
9513.0,1.43,1.46,1.38
9516.0,1.42,1.46,1.4
9518.0,1.4,1.46,1.4
9520.0,1.4,1.46,1.37
9521.0,1.39,1.46,1.38
9523.0,1.41,1.46,1.39
9525.0,1.41,1.46,1.39
9527.0,1.37,1.46,1.4
9529.0,1.33,1.46,1.41
9531.0,1.34,1.46,1.42
9533.0,1.39,1.46,1.43
9535.0,1.38,1.46,1.46
9537.0,1.37,1.46,1.46
9539.0,1.37,1.46,1.48
9541.0,1.38,1.46,1.48
9543.0,1.39,1.46,1.45
9545.0,1.4,1.46,1.44
9547.0,1.39,1.46,1.42
9549.0,1.38,1.46,1.4
9551.0,1.37,1.46,1.39
9553.0,1.38,1.46,1.37
9555.0,1.38,1.46,1.38
9558.0,1.4,1.46,1.38
9560.0,1.4,1.46,1.39
9562.0,1.38,1.46,1.36
9563.0,1.36,1.46,1.35
9565.0,1.36,1.46,1.34
9567.0,1.37,1.46,1.34
9569.0,1.38,1.46,1.34
9571.0,1.38,1.46,1.33
9573.0,1.4,1.46,1.33
9575.0,1.43,1.46,1.35
9577.0,1.44,1.46,1.35
9579.0,1.4,1.46,1.34
9581.0,1.36,1.46,1.33
9583.0,1.39,1.46,1.35
9585.0,1.45,1.46,1.32
9587.0,1.44,1.46,1.35
9589.0,1.45,1.46,1.39
9591.0,1.45,1.46,1.43
9593.0,1.43,1.46,1.46
9595.0,1.42,1.46,1.46
9597.0,1.42,1.46,1.45
9600.0,1.42,1.46,1.45
9602.0,1.41,1.46,1.43
9604.0,1.39,1.46,1.44
9605.0,1.39,1.46,1.44
9607.0,1.37,1.46,1.41
9609.0,1.35,1.46,1.4
9611.0,1.35,1.46,1.41
9613.0,1.36,1.46,1.42
9615.0,1.4,1.46,1.45
9617.0,1.43,1.46,1.45
9619.0,1.42,1.46,1.44
9621.0,1.41,1.46,1.43
9623.0,1.39,1.46,1.43
9625.0,1.38,1.46,1.42
9627.0,1.38,1.46,1.41
9629.0,1.38,1.46,1.39
9631.0,1.39,1.46,1.4
9633.0,1.39,1.46,1.42
9635.0,1.4,1.46,1.42
9637.0,1.4,1.46,1.43
9639.0,1.39,1.46,1.43
9641.0,1.39,1.46,1.41
9644.0,1.4,1.46,1.4
9646.0,1.4,1.46,1.42
9648.0,1.38,1.46,1.43
9649.0,1.38,1.46,1.44
9651.0,1.38,1.46,1.45
9653.0,1.39,1.46,1.44
9655.0,1.4,1.46,1.43
9657.0,1.41,1.46,1.41
9659.0,1.42,1.46,1.41
9661.0,1.43,1.46,1.39
9663.0,1.42,1.46,1.37
9665.0,1.41,1.46,1.36
9667.0,1.4,1.46,1.37
9669.0,1.38,1.46,1.37
9671.0,1.44,1.46,1.36
9673.0,1.45,1.46,1.38
9675.0,1.48,1.46,1.41
9677.0,1.47,1.46,1.38
9679.0,1.45,1.46,1.34
9681.0,1.44,1.46,1.33
9683.0,1.46,1.46,1.32
9686.0,1.48,1.46,1.28
9688.0,1.45,1.46,1.28
9690.0,1.4,1.46,1.28
9691.0,1.42,1.46,1.31
9693.0,1.43,1.46,1.32
9695.0,1.46,1.46,1.33
9697.0,1.47,1.46,1.32
9699.0,1.48,1.46,1.29
9701.0,1.47,1.46,1.27
9703.0,1.46,1.46,1.27
9705.0,1.44,1.46,1.25
9707.0,1.45,1.46,1.26
9709.0,1.45,1.46,1.27
9711.0,1.45,1.46,1.31
9713.0,1.47,1.46,1.32
9715.0,1.47,1.46,1.33
9717.0,1.45,1.46,1.34
9719.0,1.42,1.46,1.34
9721.0,1.4,1.46,1.36
9723.0,1.41,1.46,1.37
9725.0,1.44,1.46,1.36
9728.0,1.43,1.46,1.37
9730.0,1.43,1.46,1.36
9732.0,1.49,1.46,1.37
9733.0,1.48,1.46,1.35
9735.0,1.46,1.46,1.36
9737.0,1.48,1.46,1.35
9739.0,1.47,1.46,1.37
9741.0,1.47,1.46,1.39
9743.0,1.46,1.46,1.39
9745.0,1.45,1.46,1.37
9747.0,1.44,1.46,1.35
9749.0,1.43,1.46,1.36
9751.0,1.43,1.46,1.36
9753.0,1.45,1.46,1.38
9755.0,1.46,1.46,1.39
9757.0,1.48,1.46,1.38
9759.0,1.49,1.45,1.35
9761.0,1.48,1.45,1.36
9763.0,1.47,1.46,1.36
9765.0,1.46,1.46,1.36
9767.0,1.46,1.46,1.38
9769.0,1.44,1.46,1.38
9772.0,1.44,1.46,1.39
9774.0,1.44,1.46,1.4
9776.0,1.46,1.46,1.41
9777.0,1.47,1.46,1.4
9779.0,1.46,1.46,1.4
9781.0,1.44,1.46,1.38
9783.0,1.42,1.46,1.37
9785.0,1.43,1.46,1.36
9787.0,1.41,1.46,1.36
9789.0,1.41,1.46,1.35
9791.0,1.43,1.46,1.37
9793.0,1.45,1.46,1.39
9795.0,1.47,1.46,1.42
9797.0,1.46,1.46,1.44
9799.0,1.45,1.46,1.47
9801.0,1.44,1.46,1.45
9803.0,1.43,1.46,1.45
9805.0,1.41,1.46,1.45
9807.0,1.39,1.46,1.44
9809.0,1.36,1.46,1.42
9811.0,1.36,1.46,1.45
9814.0,1.35,1.46,1.48
9816.0,1.36,1.46,1.5
9818.0,1.35,1.45,1.48
9819.0,1.36,1.45,1.48
9821.0,1.35,1.46,1.48
9823.0,1.34,1.46,1.46
9825.0,1.33,1.46,1.48
9827.0,1.31,1.46,1.5
9829.0,1.29,1.46,1.5
9831.0,1.29,1.46,1.53
9833.0,1.31,1.46,1.54
9835.0,1.34,1.46,1.55
9837.0,1.35,1.45,1.53
9839.0,1.35,1.46,1.51
9841.0,1.35,1.46,1.49
9843.0,1.38,1.46,1.45
9845.0,1.4,1.46,1.45
9847.0,1.37,1.46,1.45
9849.0,1.33,1.46,1.44
9851.0,1.33,1.46,1.45
9853.0,1.32,1.46,1.46
9856.0,1.33,1.46,1.48
9858.0,1.36,1.46,1.49
9860.0,1.39,1.46,1.47
9861.0,1.39,1.46,1.49
9863.0,1.38,1.45,1.51
9865.0,1.37,1.46,1.48
9867.0,1.36,1.46,1.49
9869.0,1.36,1.46,1.47
9871.0,1.4,1.46,1.47
9873.0,1.44,1.46,1.5
9875.0,1.45,1.46,1.53
9877.0,1.45,1.46,1.56
9879.0,1.42,1.46,1.55
9881.0,1.47,1.46,1.55
9883.0,1.48,1.45,1.53
9885.0,1.48,1.46,1.5
9887.0,1.47,1.46,1.52
9889.0,1.45,1.46,1.54
9891.0,1.45,1.46,1.56
9893.0,1.43,1.46,1.57
9895.0,1.45,1.46,1.58
9897.0,1.45,1.46,1.58
9900.0,1.45,1.45,1.61
9902.0,1.43,1.46,1.64
9904.0,1.4,1.46,1.67
9905.0,1.38,1.46,1.7
9907.0,1.41,1.46,1.72
9909.0,1.41,1.46,1.72
9911.0,1.42,1.46,1.74
9913.0,1.44,1.46,1.76
9915.0,1.44,1.46,1.78
9917.0,1.44,1.45,1.76
9919.0,1.43,1.45,1.71
9921.0,1.44,1.46,1.69
9923.0,1.45,1.46,1.68
9925.0,1.45,1.46,1.65
9927.0,1.45,1.46,1.64
9929.0,1.43,1.46,1.63
9931.0,1.44,1.46,1.64
9933.0,1.44,1.46,1.65
9935.0,1.44,1.46,1.66
9937.0,1.47,1.45,1.64
9939.0,1.46,1.45,1.62
9942.0,1.46,1.46,1.58
9944.0,1.46,1.46,1.55
9946.0,1.47,1.46,1.49
9947.0,1.44,1.46,1.45
9949.0,1.43,1.46,1.42
9951.0,1.44,1.46,1.44
9953.0,1.47,1.46,1.43
9955.0,1.48,1.46,1.43
9957.0,1.46,1.46,1.44
9959.0,1.45,1.46,1.46
9961.0,1.46,1.45,1.45
9963.0,1.45,1.45,1.45
9965.0,1.43,1.46,1.46
9967.0,1.42,1.46,1.45
9969.0,1.4,1.46,1.45
9971.0,1.4,1.46,1.45
9973.0,1.41,1.46,1.47
9975.0,1.43,1.46,1.47
9977.0,1.41,1.45,1.45
9979.0,1.4,1.46,1.43
9981.0,1.39,1.46,1.42
9984.0,1.38,1.46,1.44
9986.0,1.36,1.46,1.47
9988.0,1.36,1.46,1.46
9989.0,1.36,1.46,1.46
9991.0,1.37,1.46,1.45
9993.0,1.38,1.46,1.46
9995.0,1.36,1.46,1.46
9997.0,1.35,1.45,1.48
9999.0,1.31,1.45,1.51
10001.0,1.34,1.45,1.55
10003.0,1.33,1.45,1.58
10005.0,1.34,1.46,1.59
10007.0,1.38,1.46,1.57
10009.0,1.38,1.46,1.54
10011.0,1.37,1.46,1.5
10013.0,1.36,1.46,1.43
10015.0,1.39,1.46,1.39
10017.0,1.4,1.45,1.34
10019.0,1.41,1.45,1.31
10021.0,1.4,1.45,1.26
10023.0,1.4,1.45,1.21
10025.0,1.39,1.46,1.2
10028.0,1.4,1.46,1.19
10030.0,1.4,1.46,1.16
10032.0,1.42,1.46,1.16
10033.0,1.44,1.46,1.17
10035.0,1.46,1.46,1.16
10037.0,1.45,1.45,1.16
10039.0,1.45,1.45,1.16
10041.0,1.45,1.45,1.17
10043.0,1.45,1.45,1.18
10045.0,1.45,1.46,1.18
10047.0,1.43,1.46,1.19
10049.0,1.4,1.46,1.2
10051.0,1.35,1.46,1.22
10053.0,1.28,1.46,1.22
10055.0,1.27,1.46,1.25
10057.0,1.25,1.45,1.26
10059.0,1.25,1.45,1.27
10061.0,1.26,1.45,1.24
10063.0,1.26,1.45,1.23
10065.0,1.24,1.46,1.22
10067.0,1.27,1.46,1.23
10070.0,1.3,1.46,1.24
10072.0,1.32,1.46,1.23
10074.0,1.33,1.46,1.24
10075.0,1.33,1.45,1.25
10077.0,1.35,1.45,1.25
10079.0,1.35,1.45,1.26
10081.0,1.35,1.45,1.26
10083.0,1.37,1.45,1.26
10085.0,1.38,1.46,1.26
10087.0,1.39,1.46,1.26
10089.0,1.4,1.46,1.28
10091.0,1.41,1.46,1.3
10093.0,1.42,1.46,1.3
10095.0,1.43,1.45,1.29
10097.0,1.44,1.45,1.3
10099.0,1.44,1.45,1.32
10101.0,1.44,1.45,1.32
10103.0,1.43,1.45,1.33
10105.0,1.42,1.46,1.36
10107.0,1.42,1.46,1.39
10109.0,1.42,1.46,1.41
10112.0,1.43,1.46,1.45
10114.0,1.42,1.46,1.46
10116.0,1.43,1.45,1.46
10118.0,1.45,1.45,1.45
10119.0,1.48,1.45,1.46
10121.0,1.5,1.45,1.47
10123.0,1.49,1.45,1.48
10125.0,1.47,1.45,1.49
10127.0,1.46,1.46,1.5
10129.0,1.46,1.46,1.5
10131.0,1.44,1.46,1.52
10133.0,1.4,1.46,1.54
10135.0,1.45,1.45,1.52
10137.0,1.47,1.45,1.52
10139.0,1.47,1.45,1.56
10141.0,1.47,1.45,1.55
10143.0,1.47,1.45,1.55
10145.0,1.48,1.46,1.52
10147.0,1.49,1.46,1.52
10149.0,1.5,1.46,1.53
10151.0,1.5,1.46,1.55
10153.0,1.5,1.46,1.54
10156.0,1.51,1.45,1.56
10158.0,1.49,1.45,1.58
10160.0,1.47,1.45,1.56
10162.0,1.46,1.45,1.56
10163.0,1.46,1.46,1.55
10165.0,1.47,1.46,1.55
10167.0,1.46,1.46,1.53
10169.0,1.47,1.46,1.54
10171.0,1.48,1.46,1.55
10173.0,1.51,1.46,1.56
10175.0,1.53,1.46,1.56
10177.0,1.51,1.45,1.54
10179.0,1.49,1.45,1.54
10181.0,1.48,1.45,1.54
10183.0,1.49,1.46,1.54
10185.0,1.48,1.46,1.52
10187.0,1.48,1.46,1.5
10189.0,1.47,1.46,1.48
10191.0,1.49,1.46,1.47
10193.0,1.49,1.46,1.47
10195.0,1.52,1.45,1.46
10198.0,1.54,1.45,1.43
10200.0,1.51,1.45,1.43
10202.0,1.48,1.45,1.44
10204.0,1.48,1.45,1.43
10205.0,1.47,1.46,1.39
10207.0,1.48,1.46,1.36
10209.0,1.48,1.46,1.35
10211.0,1.48,1.46,1.34
10213.0,1.5,1.46,1.35
10215.0,1.53,1.45,1.36
10217.0,1.51,1.45,1.36
10219.0,1.5,1.45,1.35
10221.0,1.48,1.45,1.35
10223.0,1.47,1.46,1.33
10225.0,1.48,1.46,1.32
10227.0,1.48,1.46,1.32
10229.0,1.5,1.46,1.31
10231.0,1.52,1.46,1.33
10233.0,1.54,1.46,1.38
10235.0,1.55,1.45,1.41
10237.0,1.55,1.45,1.4
10240.0,1.58,1.45,1.38
10242.0,1.61,1.45,1.37
10244.0,1.6,1.45,1.38
10246.0,1.59,1.46,1.39
10248.0,1.57,1.46,1.39
10249.0,1.54,1.46,1.41
10251.0,1.55,1.46,1.42
10253.0,1.56,1.46,1.42
10255.0,1.55,1.45,1.43
10257.0,1.53,1.45,1.42
10259.0,1.51,1.45,1.41
10261.0,1.47,1.45,1.41
10263.0,1.46,1.45,1.39
10265.0,1.47,1.46,1.39
10267.0,1.48,1.46,1.41
10269.0,1.47,1.46,1.4
10271.0,1.46,1.46,1.4
10273.0,1.41,1.46,1.38
10275.0,1.45,1.45,1.4
10277.0,1.45,1.45,1.41
10279.0,1.47,1.45,1.42
10281.0,1.46,1.46,1.44
10284.0,1.43,1.45,1.43
10286.0,1.41,1.46,1.47
10288.0,1.39,1.46,1.46
10290.0,1.41,1.46,1.52
10291.0,1.44,1.46,1.55
10293.0,1.45,1.46,1.59
10295.0,1.47,1.46,1.63
10297.0,1.46,1.45,1.62
10299.0,1.45,1.45,1.62
10301.0,1.44,1.45,1.61
10303.0,1.44,1.46,1.57
10305.0,1.43,1.46,1.55
10307.0,1.41,1.46,1.53
10309.0,1.42,1.46,1.52
10311.0,1.44,1.46,1.52
10313.0,1.45,1.46,1.51
10315.0,1.45,1.45,1.49
10317.0,1.48,1.45,1.45
10319.0,1.46,1.45,1.45
10321.0,1.45,1.45,1.45
10323.0,1.45,1.46,1.45
10326.0,1.45,1.46,1.43
10328.0,1.44,1.46,1.4
10330.0,1.42,1.46,1.4
10332.0,1.44,1.46,1.41
10334.0,1.47,1.46,1.4
10335.0,1.46,1.46,1.39
10337.0,1.48,1.45,1.36
10339.0,1.49,1.45,1.36
10341.0,1.47,1.45,1.35
10343.0,1.46,1.46,1.32
10345.0,1.46,1.46,1.33
10347.0,1.46,1.46,1.35
10349.0,1.45,1.46,1.36
10351.0,1.46,1.46,1.36
10353.0,1.48,1.46,1.39
10355.0,1.5,1.46,1.41
10357.0,1.48,1.45,1.41
10359.0,1.48,1.45,1.4
10361.0,1.49,1.45,1.4
10363.0,1.51,1.46,1.41
10365.0,1.49,1.46,1.42
10368.0,1.46,1.46,1.43
10370.0,1.47,1.46,1.45
10372.0,1.5,1.46,1.48
10374.0,1.51,1.46,1.48
10376.0,1.51,1.45,1.5
10377.0,1.52,1.46,1.49
10379.0,1.53,1.46,1.47
10381.0,1.51,1.46,1.48
10383.0,1.51,1.45,1.47
10385.0,1.5,1.46,1.46
10387.0,1.5,1.46,1.45
10389.0,1.45,1.46,1.45
10391.0,1.47,1.46,1.46
10393.0,1.52,1.46,1.46
10395.0,1.53,1.45,1.45
10397.0,1.52,1.46,1.44
10399.0,1.48,1.46,1.42
10401.0,1.48,1.45,1.4
10403.0,1.49,1.45,1.4
10405.0,1.48,1.46,1.4
10407.0,1.46,1.46,1.41
10409.0,1.46,1.46,1.42
10412.0,1.48,1.46,1.43
10414.0,1.5,1.46,1.46
10416.0,1.51,1.45,1.48
10418.0,1.5,1.45,1.49
10420.0,1.48,1.45,1.49
10421.0,1.47,1.45,1.49
10423.0,1.46,1.46,1.45
10425.0,1.43,1.45,1.42
10427.0,1.41,1.46,1.42
10429.0,1.42,1.46,1.44
10431.0,1.44,1.46,1.46
10433.0,1.45,1.46,1.44
10435.0,1.46,1.46,1.44
10437.0,1.47,1.45,1.45
10439.0,1.47,1.45,1.46
10441.0,1.45,1.45,1.46
10443.0,1.44,1.46,1.46
10445.0,1.43,1.46,1.45
10447.0,1.42,1.46,1.45
10449.0,1.4,1.46,1.46
10451.0,1.42,1.46,1.46
10454.0,1.45,1.46,1.46
10456.0,1.46,1.45,1.45
10458.0,1.45,1.45,1.42
10460.0,1.45,1.45,1.4
10462.0,1.44,1.45,1.38
10464.0,1.44,1.46,1.38
10465.0,1.44,1.46,1.39
10467.0,1.44,1.46,1.39
10469.0,1.44,1.46,1.38
10471.0,1.46,1.46,1.4
10473.0,1.48,1.46,1.4
10475.0,1.49,1.46,1.37
10477.0,1.48,1.45,1.35
10479.0,1.48,1.45,1.35
10481.0,1.48,1.45,1.37
10483.0,1.47,1.45,1.38
10485.0,1.45,1.46,1.39
10487.0,1.41,1.46,1.42
10489.0,1.41,1.46,1.44
10491.0,1.45,1.46,1.44
10493.0,1.48,1.46,1.43
10496.0,1.48,1.45,1.44
10498.0,1.46,1.45,1.43
10500.0,1.46,1.45,1.44
10502.0,1.46,1.46,1.43
10504.0,1.47,1.46,1.42
10506.0,1.44,1.46,1.39
10507.0,1.42,1.46,1.36
10509.0,1.42,1.46,1.38
10511.0,1.41,1.46,1.41
10513.0,1.42,1.46,1.42
10515.0,1.43,1.46,1.43
10517.0,1.42,1.45,1.44
10519.0,1.41,1.45,1.47
10521.0,1.41,1.45,1.5
10523.0,1.39,1.46,1.5
10525.0,1.38,1.46,1.48
10527.0,1.37,1.46,1.49
10529.0,1.39,1.46,1.49
10531.0,1.41,1.46,1.49
10533.0,1.43,1.46,1.5
10535.0,1.45,1.46,1.51
10537.0,1.44,1.45,1.5
10540.0,1.43,1.46,1.47
10542.0,1.42,1.45,1.47
10544.0,1.41,1.45,1.48
10546.0,1.39,1.46,1.47
10548.0,1.39,1.46,1.45
10549.0,1.41,1.46,1.45
10551.0,1.41,1.46,1.45
10553.0,1.41,1.46,1.46
10555.0,1.4,1.45,1.46
10557.0,1.37,1.45,1.45
10559.0,1.4,1.45,1.44
10561.0,1.4,1.45,1.43
10563.0,1.39,1.45,1.42
10565.0,1.37,1.46,1.42
10567.0,1.37,1.46,1.43
10569.0,1.38,1.46,1.42
10571.0,1.39,1.46,1.42
10573.0,1.42,1.46,1.44
10575.0,1.44,1.45,1.45
10577.0,1.45,1.45,1.45
10579.0,1.44,1.45,1.45
10582.0,1.44,1.45,1.44
10584.0,1.44,1.46,1.43
10586.0,1.47,1.46,1.44
10588.0,1.49,1.46,1.42
10590.0,1.49,1.46,1.43
10592.0,1.46,1.46,1.45
10593.0,1.48,1.46,1.45
10595.0,1.49,1.46,1.43
10597.0,1.49,1.45,1.43
10599.0,1.47,1.45,1.4
10601.0,1.48,1.45,1.38
10603.0,1.46,1.45,1.38
10605.0,1.45,1.46,1.38
10607.0,1.45,1.46,1.36
10609.0,1.46,1.46,1.36
10611.0,1.48,1.46,1.35
10613.0,1.48,1.46,1.36
10615.0,1.47,1.45,1.35
10617.0,1.46,1.45,1.34
10619.0,1.46,1.45,1.35
10621.0,1.45,1.45,1.36
10624.0,1.42,1.46,1.34
10626.0,1.41,1.46,1.32
10628.0,1.43,1.46,1.33
10630.0,1.43,1.46,1.35
10632.0,1.43,1.46,1.37
10634.0,1.44,1.46,1.37
10636.0,1.45,1.45,1.38
10637.0,1.45,1.45,1.39
10639.0,1.44,1.46,1.39
10641.0,1.43,1.45,1.41
10643.0,1.42,1.45,1.41
10645.0,1.42,1.46,1.41
10647.0,1.41,1.46,1.44
10649.0,1.41,1.46,1.46
10651.0,1.42,1.46,1.49
10653.0,1.43,1.46,1.49
10655.0,1.44,1.45,1.47
10657.0,1.42,1.45,1.46
10659.0,1.42,1.45,1.47
10661.0,1.4,1.45,1.47
10663.0,1.39,1.46,1.45
10665.0,1.38,1.46,1.45
10668.0,1.39,1.46,1.45
10670.0,1.38,1.46,1.46
10672.0,1.39,1.46,1.48
10674.0,1.4,1.45,1.49
10676.0,1.44,1.45,1.49
10678.0,1.43,1.45,1.45
10680.0,1.38,1.45,1.44
10681.0,1.38,1.45,1.45
10683.0,1.39,1.46,1.44
10685.0,1.41,1.46,1.42
10687.0,1.4,1.46,1.39
10689.0,1.41,1.46,1.39
10691.0,1.43,1.46,1.41
10693.0,1.41,1.46,1.4
10695.0,1.39,1.46,1.39
10697.0,1.4,1.45,1.41
10699.0,1.43,1.45,1.41
10701.0,1.42,1.46,1.39
10703.0,1.42,1.46,1.37
10705.0,1.42,1.46,1.37
10707.0,1.4,1.46,1.38
10710.0,1.4,1.46,1.39
10712.0,1.4,1.46,1.4
10714.0,1.4,1.46,1.39
10716.0,1.4,1.46,1.38
10718.0,1.38,1.46,1.37
10720.0,1.36,1.45,1.34
10722.0,1.38,1.45,1.33
10723.0,1.39,1.46,1.33
10725.0,1.38,1.46,1.34
10727.0,1.37,1.46,1.35
10729.0,1.38,1.46,1.38
10731.0,1.42,1.46,1.4
10733.0,1.44,1.46,1.43
10735.0,1.45,1.45,1.43
10737.0,1.43,1.45,1.41
10739.0,1.41,1.45,1.4
10741.0,1.39,1.45,1.39
10743.0,1.39,1.45,1.4
10745.0,1.39,1.46,1.39
10747.0,1.37,1.46,1.41
10749.0,1.36,1.46,1.42
10752.0,1.39,1.46,1.43
10754.0,1.43,1.46,1.44
10756.0,1.43,1.45,1.43
10758.0,1.41,1.45,1.41
10760.0,1.39,1.45,1.43
10762.0,1.37,1.45,1.44
10764.0,1.37,1.46,1.44
10766.0,1.37,1.46,1.41
10767.0,1.35,1.46,1.39
10769.0,1.35,1.46,1.39
10771.0,1.37,1.46,1.4
10773.0,1.39,1.46,1.42
10775.0,1.38,1.45,1.41
10777.0,1.37,1.45,1.39
10779.0,1.37,1.45,1.41
10781.0,1.37,1.46,1.43
10783.0,1.37,1.46,1.42
10785.0,1.37,1.46,1.41
10787.0,1.36,1.46,1.37
10789.0,1.38,1.46,1.38
10791.0,1.4,1.46,1.41
10793.0,1.42,1.46,1.46
10796.0,1.43,1.45,1.48
10798.0,1.42,1.46,1.51
10800.0,1.42,1.45,1.5
10802.0,1.43,1.46,1.49
10804.0,1.43,1.46,1.48
10806.0,1.41,1.46,1.49
10808.0,1.42,1.46,1.48
10809.0,1.46,1.46,1.45
10811.0,1.48,1.46,1.44
10813.0,1.5,1.46,1.45
10815.0,1.51,1.45,1.44
10817.0,1.51,1.45,1.41
10819.0,1.49,1.46,1.4
10821.0,1.48,1.45,1.36
10823.0,1.45,1.46,1.33
10825.0,1.44,1.46,1.34
10827.0,1.42,1.46,1.31
10829.0,1.44,1.46,1.33
10831.0,1.45,1.46,1.34
10833.0,1.46,1.46,1.35
10835.0,1.46,1.45,1.32
10838.0,1.46,1.45,1.33
10840.0,1.46,1.45,1.34
10842.0,1.45,1.46,1.32
10844.0,1.43,1.46,1.29
10846.0,1.45,1.46,1.26
10848.0,1.48,1.46,1.23
10850.0,1.48,1.46,1.24
10852.0,1.45,1.46,1.24
10853.0,1.46,1.46,1.25
10855.0,1.46,1.45,1.24
10857.0,1.47,1.45,1.19
10859.0,1.45,1.45,1.18
10861.0,1.45,1.45,1.2
10863.0,1.38,1.46,1.22
10865.0,1.36,1.46,1.21
10867.0,1.31,1.46,1.22
10869.0,1.31,1.46,1.28
10871.0,1.33,1.46,1.33
10873.0,1.33,1.45,1.36
10875.0,1.29,1.45,1.34
10877.0,1.26,1.45,1.31
10880.0,1.22,1.45,1.3
10882.0,1.11,1.45,1.26
10884.0,1.02,1.45,1.2
10886.0,0.99,1.46,1.16
10888.0,1.01,1.46,1.14
10890.0,1.06,1.46,1.11
10892.0,0.99,1.46,1.08
10894.0,0.93,1.45,0.99
10895.0,0.99,1.45,0.97
10897.0,1.03,1.45,0.97
10899.0,1.0,1.45,0.95
10901.0,1.02,1.45,0.86
10903.0,1.04,1.46,0.75
10905.0,1.07,1.46,0.69
10907.0,1.01,1.46,0.58
10909.0,1.06,1.46,0.46
10911.0,0.98,1.46,0.09
10913.0,0.89,1.45,0.0
10915.0,0.83,1.45,0.0
10917.0,0.82,1.45,0.0
10919.0,0.75,1.45,0.0
10921.0,0.88,1.45,0.0
10924.0,0.85,1.45,0.0
10926.0,0.78,1.45,0.0
10928.0,0.8,1.46,0.0
10930.0,0.77,1.46,0.0
10932.0,0.82,1.46,0.0
10934.0,0.87,1.45,0.0
10936.0,0.91,1.45,0.0
10938.0,0.97,1.45,0.0
10939.0,0.97,1.45,0.0
10941.0,1.04,1.45,0.0
10943.0,1.03,1.45,0.0
10945.0,1.05,1.46,0.0
10947.0,1.08,1.46,0.0
10949.0,1.13,1.46,0.0
10951.0,1.14,1.46,0.0
10953.0,1.18,1.46,0.0
10955.0,1.2,1.46,0.0
10957.0,1.19,1.46,0.0
10959.0,1.19,1.46,0.0
10961.0,1.21,1.46,0.0
10963.0,1.22,1.46,0.0
10966.0,1.22,1.46,0.0
10968.0,1.27,1.46,0.0
10970.0,1.28,1.46,0.0
10972.0,1.32,1.46,0.0
10974.0,1.35,1.46,0.0
10976.0,1.36,1.46,0.0
10978.0,1.4,1.46,0.0
10980.0,1.43,1.46,0.0
10981.0,1.45,1.46,0.0
10983.0,1.47,1.46,0.0
10985.0,1.47,1.46,0.0
10987.0,1.49,1.46,0.0
10989.0,1.5,1.46,0.0
10991.0,1.54,1.46,0.0
10993.0,1.59,1.46,0.0
10995.0,1.6,1.46,0.0
10997.0,1.62,1.46,0.0
10999.0,1.64,1.46,0.0
11001.0,1.65,1.46,0.0
11003.0,1.68,1.46,0.0
11005.0,1.67,1.46,0.0
11008.0,1.66,1.47,0.0
11010.0,1.69,1.47,0.0
11012.0,1.7,1.46,0.0
11014.0,1.71,1.46,0.0
11016.0,1.71,1.46,0.0
11018.0,1.72,1.46,0.07
11020.0,1.74,1.46,0.15
11022.0,1.75,1.46,0.25
11024.0,1.74,1.46,0.35
11025.0,1.7,1.46,0.44
11027.0,1.68,1.46,0.51
11029.0,1.69,1.46,0.62
11031.0,1.7,1.46,0.74
11033.0,1.72,1.46,0.83
11035.0,1.73,1.46,0.95
11037.0,1.71,1.46,1.07
