time,ch1,ch2
0.0,1.84,1.47
2.0,2.02,1.46
4.0,2.1,1.44
6.0,2.15,1.43
8.0,2.05,1.43
10.0,1.99,1.44
12.0,1.76,1.45
14.0,1.64,1.45
16.0,1.59,1.46
18.0,1.94,1.48
20.0,2.1,1.47
22.0,2.26,1.46
24.0,2.49,1.44
26.0,2.54,1.43
28.0,2.61,1.43
30.0,2.46,1.44
32.0,2.42,1.45
35.0,2.37,1.45
37.0,2.07,1.46
39.0,1.89,1.48
40.0,1.88,1.47
42.0,2.05,1.46
44.0,2.15,1.44
46.0,2.17,1.43
48.0,2.14,1.43
50.0,2.19,1.44
52.0,2.26,1.45
54.0,2.41,1.45
56.0,2.27,1.46
58.0,2.12,1.48
60.0,1.99,1.47
62.0,2.02,1.46
64.0,2.16,1.44
66.0,2.28,1.43
68.0,2.32,1.43
70.0,2.28,1.44
72.0,2.31,1.45
74.0,2.33,1.45
77.0,2.16,1.47
79.0,2.19,1.48
81.0,2.32,1.47
83.0,2.32,1.46
85.0,2.58,1.44
86.0,3.05,1.43
88.0,3.26,1.43
90.0,3.0,1.44
92.0,2.77,1.45
94.0,2.49,1.45
96.0,2.08,1.47
98.0,1.66,1.48
100.0,1.2,1.47
102.0,1.06,1.46
104.0,1.18,1.44
106.0,1.45,1.43
108.0,1.28,1.43
110.0,0.84,1.44
112.0,0.59,1.45
114.0,0.59,1.45
116.0,0.66,1.47
119.0,0.68,1.48
121.0,0.71,1.47
123.0,0.94,1.46
125.0,1.23,1.44
127.0,1.53,1.43
129.0,1.83,1.43
130.0,1.87,1.44
132.0,2.01,1.45
134.0,2.1,1.45
136.0,2.37,1.47
138.0,2.34,1.48
140.0,2.57,1.47
142.0,2.57,1.46
144.0,2.55,1.44
146.0,2.58,1.43
148.0,2.68,1.43
150.0,2.55,1.44
152.0,2.29,1.45
154.0,2.2,1.45
156.0,2.08,1.47
158.0,1.98,1.48
160.0,2.21,1.47
163.0,2.5,1.46
165.0,2.81,1.44
167.0,3.25,1.43
169.0,3.26,1.43
171.0,2.99,1.44
172.0,2.95,1.45
174.0,3.15,1.46
176.0,3.05,1.47
178.0,2.85,1.48
180.0,2.95,1.47
182.0,2.98,1.46
184.0,3.3,1.44
186.0,3.3,1.43
188.0,3.3,1.43
190.0,3.3,1.44
192.0,3.3,1.45
194.0,3.3,1.46
196.0,3.3,1.47
198.0,3.26,1.48
200.0,3.13,1.47
202.0,3.3,1.46
205.0,3.3,1.44
207.0,3.3,1.43
209.0,3.3,1.43
211.0,3.3,1.44
213.0,3.3,1.45
215.0,3.3,1.46
216.0,3.3,1.47
218.0,3.3,1.48
220.0,3.3,1.47
222.0,3.3,1.46
224.0,3.3,1.44
226.0,3.3,1.43
228.0,3.3,1.43
230.0,3.3,1.44
232.0,3.3,1.45
234.0,3.3,1.45
236.0,3.3,1.47
238.0,3.3,1.48
240.0,3.3,1.47
242.0,3.17,1.46
244.0,3.03,1.44
247.0,2.85,1.43
249.0,2.67,1.43
251.0,2.57,1.44
253.0,2.48,1.45
255.0,2.36,1.45
257.0,2.18,1.47
258.0,2.09,1.48
260.0,2.1,1.47
262.0,2.2,1.46
264.0,2.18,1.44
266.0,2.05,1.43
268.0,2.06,1.43
270.0,1.67,1.44
272.0,1.52,1.45
274.0,1.35,1.45
276.0,1.23,1.47
278.0,1.29,1.48
280.0,1.33,1.47
282.0,1.44,1.46
284.0,1.57,1.44
286.0,1.67,1.43
288.0,1.85,1.43
291.0,1.97,1.44
293.0,2.24,1.45
295.0,2.41,1.45
297.0,2.55,1.46
299.0,2.8,1.47
300.0,2.98,1.47
302.0,3.04,1.46
304.0,2.84,1.44
306.0,2.45,1.43
308.0,2.01,1.43
310.0,1.54,1.44
312.0,0.86,1.45
314.0,0.53,1.45
316.0,0.4,1.46
318.0,0.53,1.48
320.0,0.76,1.47
322.0,1.25,1.46
324.0,1.67,1.44
326.0,1.86,1.43
328.0,1.84,1.43
330.0,1.82,1.44
333.0,1.5,1.45
335.0,1.6,1.45
337.0,1.49,1.47
339.0,1.39,1.48
341.0,1.45,1.47
343.0,1.47,1.46
344.0,1.57,1.44
346.0,1.87,1.43
348.0,1.93,1.43
350.0,1.69,1.44
352.0,1.49,1.45
354.0,1.38,1.45
356.0,1.2,1.47
358.0,1.11,1.47
360.0,1.09,1.47
362.0,1.02,1.46
364.0,1.14,1.44
366.0,1.18,1.43
368.0,1.19,1.43
370.0,1.08,1.44
372.0,0.6,1.45
375.0,0.39,1.45
377.0,0.25,1.47
379.0,0.06,1.48
381.0,0.13,1.47
383.0,0.28,1.46
385.0,0.55,1.44
386.0,0.65,1.43
388.0,0.62,1.43
390.0,0.31,1.44
392.0,0.15,1.45
394.0,0.16,1.46
396.0,0.04,1.48
398.0,0.2,1.49
400.0,0.25,1.48
402.0,0.35,1.47
404.0,0.37,1.45
406.0,0.37,1.44
408.0,0.36,1.44
410.0,0.24,1.45
412.0,0.3,1.47
414.0,0.23,1.49
416.0,0.05,1.54
419.0,0.08,1.58
421.0,0.35,1.62
423.0,0.46,1.6
425.0,0.62,1.53
427.0,0.94,1.54
428.0,1.11,1.61
430.0,0.98,1.67
432.0,0.75,1.82
434.0,0.78,2.02
436.0,0.86,2.14
438.0,1.08,2.09
440.0,1.23,1.93
442.0,1.19,1.72
444.0,1.12,1.77
446.0,1.19,1.96
448.0,1.28,2.08
450.0,1.19,2.21
452.0,1.15,2.33
454.0,0.87,2.45
456.0,0.73,2.67
458.0,0.73,2.69
461.0,0.86,2.65
463.0,0.95,2.54
465.0,0.84,2.41
467.0,0.77,2.39
469.0,0.91,2.46
471.0,0.83,2.43
472.0,0.75,2.38
474.0,0.56,2.43
476.0,0.36,2.51
478.0,0.4,2.45
480.0,0.5,2.51
482.0,0.49,2.44
484.0,0.5,2.35
486.0,0.55,2.33
488.0,0.65,2.26
490.0,0.73,2.31
492.0,0.88,2.42
494.0,0.83,2.4
496.0,0.72,2.54
498.0,0.64,2.54
500.0,0.62,2.36
503.0,0.71,2.25
505.0,0.87,2.05
507.0,0.83,1.92
509.0,0.82,1.96
511.0,0.75,2.0
513.0,0.49,1.76
514.0,0.4,1.95
516.0,0.21,1.98
518.0,0.0,1.89
520.0,0.0,1.9
522.0,0.0,1.67
524.0,0.08,1.49
526.0,0.09,1.55
528.0,0.13,1.43
530.0,0.36,1.45
532.0,0.39,1.6
534.0,0.4,1.72
536.0,0.34,1.79
538.0,0.44,1.74
540.0,0.47,1.62
542.0,0.8,1.61
544.0,1.06,1.44
547.0,1.2,1.39
549.0,1.32,1.45
551.0,1.35,1.5
553.0,1.28,1.48
555.0,1.27,1.59
556.0,1.18,1.6
558.0,1.14,1.5
560.0,1.25,1.39
562.0,1.42,1.24
564.0,1.49,1.09
566.0,1.53,1.13
568.0,1.51,1.24
570.0,1.35,1.38
572.0,1.3,1.55
574.0,1.19,1.69
576.0,0.99,1.67
578.0,0.87,1.71
580.0,0.81,1.5
582.0,0.99,1.52
584.0,1.14,1.49
586.0,1.15,1.41
589.0,1.16,1.33
591.0,1.1,1.32
593.0,1.07,1.41
595.0,1.1,1.52
597.0,0.95,1.61
599.0,0.86,1.56
600.0,0.88,1.54
602.0,0.93,1.53
604.0,1.07,1.44
606.0,1.1,1.46
608.0,1.12,1.65
610.0,1.03,1.64
612.0,1.01,1.73
614.0,0.89,1.75
616.0,0.8,1.72
618.0,0.82,1.73
620.0,0.92,1.71
622.0,0.98,1.32
624.0,1.24,1.26
626.0,1.31,1.26
628.0,1.28,1.22
631.0,1.35,1.32
633.0,1.33,1.36
635.0,1.25,1.45
637.0,1.27,1.53
639.0,1.39,1.41
641.0,1.52,1.24
642.0,1.65,1.27
644.0,1.72,1.14
646.0,1.78,1.11
648.0,1.79,1.14
650.0,1.64,1.1
652.0,1.55,1.11
654.0,1.45,1.3
656.0,1.35,1.35
658.0,1.39,1.44
660.0,1.43,1.5
662.0,1.51,1.35
664.0,1.6,1.27
666.0,1.58,1.19
668.0,1.53,1.22
670.0,1.45,1.39
672.0,1.25,1.39
675.0,1.15,1.49
677.0,1.15,1.58
679.0,1.18,1.66
681.0,1.23,1.58
683.0,1.42,1.53
684.0,1.59,1.26
686.0,1.61,1.14
688.0,1.6,1.13
690.0,1.54,1.08
692.0,1.49,1.1
694.0,1.43,1.23
696.0,1.3,1.27
698.0,1.32,1.37
700.0,1.34,1.33
702.0,1.46,1.31
704.0,1.58,1.18
706.0,1.57,1.28
708.0,1.57,1.36
710.0,1.5,1.45
712.0,1.42,1.46
714.0,1.3,1.42
717.0,1.21,1.42
719.0,1.25,1.45
721.0,1.32,1.24
723.0,1.46,1.09
725.0,1.51,0.86
727.0,1.44,0.9
728.0,1.3,0.84
730.0,1.18,0.81
732.0,1.08,0.81
734.0,1.04,0.97
736.0,0.85,1.0
738.0,0.8,0.96
740.0,0.79,0.97
742.0,0.85,0.89
744.0,0.99,0.69
746.0,1.04,0.56
748.0,0.95,0.43
750.0,0.88,0.48
752.0,0.86,0.48
754.0,0.77,0.58
756.0,0.65,0.58
759.0,0.65,0.5
761.0,0.78,0.26
763.0,0.91,0.14
765.0,0.99,0.05
767.0,1.01,0.01
769.0,1.08,0.05
770.0,1.09,0.14
772.0,1.05,0.13
774.0,1.15,0.35
776.0,1.17,0.53
778.0,1.2,0.64
780.0,1.39,0.8
782.0,1.5,0.8
784.0,1.55,0.67
786.0,1.59,0.63
788.0,1.61,0.76
790.0,1.59,0.83
792.0,1.54,0.89
794.0,1.47,0.79
796.0,1.4,0.81
798.0,1.32,0.76
800.0,1.47,0.73
803.0,1.48,0.61
805.0,1.45,0.59
807.0,1.36,0.65
809.0,1.3,0.8
811.0,1.23,0.99
812.0,1.19,1.13
814.0,1.13,1.21
816.0,0.96,1.13
818.0,0.81,0.88
820.0,0.87,1.0
822.0,1.03,1.06
824.0,1.16,1.1
826.0,1.19,1.15
828.0,1.22,1.32
830.0,1.07,1.43
832.0,1.06,1.73
834.0,1.01,1.84
836.0,0.94,1.92
838.0,1.11,1.84
840.0,1.32,1.83
842.0,1.46,1.71
845.0,1.6,1.71
847.0,1.65,1.65
849.0,1.68,1.74
851.0,1.69,1.97
853.0,1.64,2.07
855.0,1.54,2.21
856.0,1.44,2.22
858.0,1.47,2.22
860.0,1.53,2.11
862.0,1.73,2.03
864.0,1.87,1.94
866.0,1.86,2.04
868.0,1.91,2.17
870.0,1.84,2.25
872.0,1.77,2.38
874.0,1.64,2.5
876.0,1.46,2.45
878.0,1.48,2.51
880.0,1.58,2.53
882.0,1.5,2.41
884.0,1.61,2.33
887.0,1.68,2.35
889.0,1.69,2.23
891.0,1.6,2.24
893.0,1.65,2.29
895.0,1.59,2.28
897.0,1.52,2.25
898.0,1.55,2.17
900.0,1.56,1.8
902.0,1.74,1.87
904.0,1.86,1.69
906.0,1.77,1.57
908.0,1.77,1.59
910.0,1.66,1.6
912.0,1.54,1.61
914.0,1.48,1.67
916.0,1.37,1.66
918.0,1.23,1.72
920.0,1.25,1.7
922.0,1.32,1.55
924.0,1.38,1.41
926.0,1.5,1.37
928.0,1.51,1.19
931.0,1.55,1.31
933.0,1.6,1.35
935.0,1.49,1.33
937.0,1.36,1.36
939.0,1.31,1.32
940.0,1.34,1.07
942.0,1.51,1.01
944.0,1.58,0.93
946.0,1.65,0.97
948.0,1.62,1.06
950.0,1.49,1.1
952.0,1.32,1.02
954.0,1.23,0.98
956.0,1.18,0.97
958.0,1.18,0.97
960.0,1.19,0.97
962.0,1.26,0.83
964.0,1.3,0.64
966.0,1.43,0.65
968.0,1.47,0.69
970.0,1.37,0.68
973.0,1.41,0.82
975.0,1.31,0.95
977.0,1.2,1.0
979.0,1.22,1.04
981.0,1.33,1.03
983.0,1.37,0.89
984.0,1.52,0.83
986.0,1.59,0.75
988.0,1.58,0.7
990.0,1.55,0.85
992.0,1.49,0.95
994.0,1.47,1.05
996.0,1.44,1.22
998.0,1.45,1.18
1000.0,1.5,1.08
1002.0,1.68,0.95
1004.0,1.75,0.77
1006.0,1.81,0.79
1008.0,1.89,0.96
1010.0,1.82,1.02
1012.0,1.81,1.12
1015.0,1.68,1.18
1017.0,1.55,1.12
1019.0,1.59,1.21
1021.0,1.63,1.17
1023.0,1.7,1.02
1025.0,1.84,0.93
1026.0,1.91,0.93
1028.0,1.79,0.89
1030.0,1.73,1.17
1032.0,1.61,1.39
1034.0,1.55,1.61
1036.0,1.48,1.62
1038.0,1.46,1.6
1040.0,1.52,1.57
1042.0,1.66,1.56
1044.0,1.81,1.42
1046.0,1.8,1.54
1048.0,1.77,1.66
1050.0,1.62,1.83
1052.0,1.59,2.01
1054.0,1.49,2.19
1056.0,1.33,2.15
1059.0,1.38,2.2
1061.0,1.44,2.12
1063.0,1.56,1.98
1065.0,1.71,1.82
1067.0,1.74,1.75
1069.0,1.66,1.58
1070.0,1.69,1.77
1072.0,1.65,1.74
1074.0,1.56,1.83
1076.0,1.45,1.98
1078.0,1.52,2.05
1080.0,1.61,1.78
1082.0,1.77,1.73
1084.0,1.9,1.51
1086.0,1.89,1.49
1088.0,1.94,1.63
1090.0,1.86,1.62
1092.0,1.79,1.65
1094.0,1.72,1.77
1096.0,1.61,1.73
1098.0,1.65,1.85
1101.0,1.76,1.75
1103.0,1.87,1.68
1105.0,1.95,1.52
1107.0,1.94,1.43
1109.0,1.94,1.46
1111.0,1.87,1.56
1112.0,1.9,1.56
1114.0,1.77,1.61
1116.0,1.63,1.64
1118.0,1.67,1.76
1120.0,1.68,1.58
1122.0,1.8,1.54
1124.0,1.93,1.51
1126.0,1.92,1.59
1128.0,1.88,1.71
1130.0,1.85,1.81
1132.0,1.85,1.91
1134.0,1.82,2.05
1136.0,1.74,2.09
1138.0,1.85,2.24
1140.0,1.83,2.12
1143.0,1.88,2.02
1145.0,2.01,1.99
1147.0,2.08,1.99
1149.0,2.07,1.93
1151.0,2.07,2.05
1153.0,2.02,2.14
1155.0,1.98,2.17
1156.0,1.89,2.15
1158.0,1.95,2.06
1160.0,1.92,1.95
1162.0,2.02,1.87
1164.0,2.15,1.74
1166.0,2.09,1.63
1168.0,2.04,1.68
1170.0,1.86,1.54
1172.0,1.81,1.62
1174.0,1.78,1.75
1176.0,1.69,1.75
1178.0,1.76,1.75
1180.0,1.74,1.61
1182.0,1.87,1.41
1184.0,2.0,1.26
1187.0,2.05,1.26
1189.0,2.05,1.33
1191.0,1.94,1.37
1193.0,1.81,1.41
1195.0,1.67,1.42
1197.0,1.48,1.44
1198.0,1.47,1.38
1200.0,1.54,1.21
1202.0,1.65,1.15
1204.0,1.76,1.06
1206.0,1.83,1.1
1208.0,1.84,1.18
1210.0,1.79,1.3
1212.0,1.7,1.35
1214.0,1.55,1.38
1216.0,1.45,1.34
1218.0,1.43,1.37
1220.0,1.47,1.35
1222.0,1.67,1.24
1224.0,1.77,1.04
1226.0,1.82,1.22
1229.0,1.65,1.2
1231.0,1.51,1.24
1233.0,1.48,1.5
1235.0,1.39,1.61
1237.0,1.24,1.65
1239.0,1.26,1.68
1241.0,1.25,1.45
1242.0,1.36,1.46
1244.0,1.43,1.37
1246.0,1.38,1.35
1248.0,1.39,1.49
1250.0,1.39,1.64
1252.0,1.37,1.57
1254.0,1.31,1.65
1256.0,1.22,1.69
1258.0,1.18,1.64
1260.0,1.18,1.46
1262.0,1.27,1.25
1264.0,1.34,1.19
1266.0,1.28,1.2
1268.0,1.25,1.12
1271.0,1.03,1.07
1273.0,0.89,1.08
1275.0,0.87,1.26
1277.0,0.76,1.35
1279.0,0.83,1.4
1281.0,0.79,1.1
1283.0,0.98,1.06
1284.0,1.05,1.1
1286.0,0.98,1.05
1288.0,1.01,1.22
1290.0,1.0,1.23
1292.0,0.91,1.06
1294.0,0.75,1.15
1296.0,0.67,1.15
1298.0,0.74,1.2
1300.0,0.88,1.06
1302.0,1.07,0.91
1304.0,1.19,0.61
1306.0,1.19,0.47
1308.0,1.25,0.54
1310.0,1.15,0.48
1312.0,1.01,0.53
1315.0,0.87,0.59
1317.0,0.78,0.58
1319.0,0.76,0.54
1321.0,0.75,0.32
1323.0,0.97,0.18
1325.0,1.25,0.05
1327.0,1.41,0.0
1328.0,1.52,0.0
1330.0,1.5,0.15
1332.0,1.37,0.42
1334.0,1.22,0.36
1336.0,1.21,0.55
1338.0,1.21,0.67
1340.0,1.28,0.74
1342.0,1.46,0.74
1344.0,1.6,0.57
1346.0,1.72,0.67
1348.0,1.8,0.85
1350.0,1.72,0.76
1352.0,1.63,0.94
1354.0,1.42,0.95
1357.0,1.33,0.99
1359.0,1.37,1.19
1361.0,1.37,1.15
1363.0,1.34,1.2
1365.0,1.28,1.25
1367.0,1.25,1.26
1369.0,1.31,1.35
1370.0,1.15,1.31
1372.0,0.86,1.4
1374.0,0.83,1.53
1376.0,0.73,1.75
1378.0,0.74,1.85
1380.0,0.75,1.72
1382.0,0.9,1.69
1384.0,1.04,1.61
1386.0,0.95,1.65
1388.0,0.84,1.72
1390.0,0.72,1.45
1392.0,0.63,1.41
1394.0,0.48,1.62
1396.0,0.34,1.7
1399.0,0.27,1.67
1401.0,0.44,1.53
1403.0,0.58,1.25
1405.0,0.61,1.03
1407.0,0.6,1.13
1409.0,0.56,1.2
1411.0,0.43,1.26
1413.0,0.23,1.25
1414.0,0.08,1.33
1416.0,0.08,1.44
1418.0,0.15,1.58
1420.0,0.25,1.36
1422.0,0.46,1.4
1424.0,0.57,1.41
1426.0,0.66,1.41
1428.0,0.69,1.33
1430.0,0.72,1.37
1432.0,0.62,1.41
1434.0,0.53,1.51
1436.0,0.47,1.53
1438.0,0.45,1.56
1440.0,0.57,1.4
1443.0,0.65,1.49
1445.0,0.71,1.59
1447.0,0.82,1.58
1449.0,0.83,1.68
1451.0,0.73,1.87
1453.0,0.65,1.64
1455.0,0.55,1.45
1456.0,0.36,1.25
1458.0,0.33,1.25
1460.0,0.31,0.94
1462.0,0.35,0.67
1464.0,0.31,0.48
1466.0,0.29,0.35
1468.0,0.34,0.48
1470.0,0.17,0.76
1472.0,0.03,0.89
1474.0,0.0,1.1
1476.0,0.0,1.42
1478.0,0.0,1.45
1480.0,0.13,1.0
1482.0,0.26,0.24
1485.0,0.22,0.0
1487.0,0.19,0.0
1489.0,0.06,0.0
1491.0,0.0,0.0
1493.0,0.0,0.0
1495.0,0.0,0.0
1497.0,0.0,0.0
1499.0,0.0,0.0
1500.0,0.0,0.0
1502.0,0.0,0.0
1504.0,0.0,0.0
1506.0,0.0,0.0
1508.0,0.0,0.0
1510.0,0.17,0.0
1512.0,0.19,0.0
1514.0,0.13,0.0
1516.0,0.11,2.18
1518.0,0.08,3.3
1520.0,0.2,3.3
1522.0,0.18,3.3
1524.0,0.14,3.3
1527.0,0.12,3.3
1529.0,0.23,3.3
1531.0,0.2,3.3
1533.0,0.37,3.3
1535.0,0.26,3.3
1537.0,0.2,3.3
1539.0,0.23,3.3
1541.0,0.37,3.3
1542.0,0.54,2.83
1544.0,0.77,1.85
1546.0,0.9,1.03
1548.0,1.02,0.0
1550.0,1.03,0.0
1552.0,0.97,0.0
1554.0,0.83,0.0
1556.0,0.84,0.0
1558.0,0.98,0.0
1560.0,1.08,0.0
1562.0,1.19,0.0
1564.0,1.3,0.0
1566.0,1.35,0.0
1568.0,1.37,0.0
1571.0,1.45,0.0
1573.0,1.54,0.0
1575.0,1.59,0.0
1577.0,1.57,0.0
1579.0,1.73,0.0
1581.0,2.08,0.0
1583.0,2.22,0.0
1585.0,2.32,0.0
1586.0,2.37,0.0
1588.0,2.32,0.0
1590.0,2.3,0.13
1592.0,2.28,0.3
1594.0,2.19,0.47
1596.0,2.19,0.63
1598.0,2.23,0.78
1600.0,2.27,0.9
1602.0,2.36,1.01
1604.0,2.45,1.1
1606.0,2.57,1.2
1608.0,2.53,1.29
1610.0,2.44,1.39
1613.0,2.34,1.47
1615.0,2.18,1.55
1617.0,2.11,1.63
1619.0,2.15,1.7
1621.0,2.24,1.75
1623.0,2.49,1.79
1625.0,2.64,1.82
1627.0,2.78,1.86
1628.0,2.78,1.9
1630.0,2.75,1.94
1632.0,2.65,1.98
1634.0,2.55,2.02
1636.0,2.43,2.05
1638.0,2.48,2.08
1640.0,2.49,2.1
1642.0,2.59,2.1
1644.0,2.6,2.1
1646.0,2.58,2.11
1648.0,2.56,2.12
1650.0,2.5,2.14
1652.0,2.43,2.16
1655.0,2.35,2.2
1657.0,2.29,2.42
1659.0,2.25,2.93
1661.0,2.31,3.22
1663.0,2.42,3.3
1665.0,2.46,3.3
1667.0,2.42,3.3
1669.0,2.33,3.3
1671.0,2.22,3.3
1672.0,2.15,3.3
1674.0,1.99,3.3
1676.0,1.92,3.3
1678.0,1.83,3.3
1680.0,1.86,3.3
1682.0,2.0,3.3
1684.0,2.14,3.3
1686.0,2.17,3.3
1688.0,2.16,3.3
1690.0,2.07,3.3
1692.0,1.95,3.3
1694.0,1.82,3.3
1696.0,1.67,3.3
1699.0,1.63,3.3
1701.0,1.73,3.3
1703.0,1.83,3.3
1705.0,1.85,3.3
1707.0,1.92,3.3
1709.0,1.87,3.3
1711.0,1.75,3.3
1713.0,1.66,3.3
1714.0,1.55,3.3
1716.0,1.43,3.3
1718.0,1.39,3.3
1720.0,1.47,3.3
1722.0,1.64,3.3
1724.0,1.84,3.3
1726.0,1.92,3.3
1728.0,1.89,3.17
1730.0,1.86,3.24
1732.0,1.77,3.25
1734.0,1.68,3.04
1736.0,1.63,2.83
1738.0,1.55,2.58
1741.0,1.57,2.21
1743.0,1.66,2.02
1745.0,1.77,1.84
1747.0,1.76,1.51
1749.0,1.6,1.25
1751.0,1.46,0.81
1753.0,1.49,0.74
1755.0,1.45,0.49
1757.0,1.39,0.27
1758.0,1.32,0.12
1760.0,1.53,0.0
1762.0,1.7,0.0
1764.0,1.81,0.0
1766.0,1.73,0.0
1768.0,1.6,0.0
1770.0,1.39,0.0
1772.0,1.05,0.0
1774.0,0.88,0.0
1776.0,0.83,0.0
1778.0,0.61,0.0
1780.0,0.54,0.0
1783.0,0.39,0.0
1785.0,0.05,0.0
1787.0,0.0,0.0
1789.0,0.0,0.0
1791.0,0.0,0.0
1793.0,0.0,0.0
1795.0,0.0,0.02
1797.0,0.0,0.04
1799.0,0.0,0.16
1800.0,0.0,0.26
1802.0,0.0,0.14
1804.0,0.0,0.09
1806.0,0.0,0.18
1808.0,0.0,0.22
1810.0,0.0,0.3
1812.0,0.0,0.0
1814.0,0.0,0.0
1816.0,0.0,0.0
1818.0,0.0,0.25
1820.0,0.0,0.18
1822.0,0.0,0.36
1824.0,0.0,0.64
1827.0,0.0,0.85
1829.0,0.0,0.96
1831.0,0.0,1.0
1833.0,0.0,0.89
1835.0,0.0,0.73
1837.0,0.0,0.65
1839.0,0.0,0.52
1841.0,0.0,0.37
1843.0,0.0,0.2
1844.0,0.0,0.12
1846.0,0.0,0.0
1848.0,0.0,0.0
1850.0,0.0,0.0
1852.0,0.0,0.0
1854.0,0.0,0.04
1856.0,0.0,0.33
1858.0,0.0,0.57
1860.0,0.0,0.41
1862.0,0.0,0.54
1864.0,0.0,0.72
1866.0,0.0,0.85
1869.0,0.0,0.87
1871.0,0.0,1.16
1873.0,0.0,1.36
1875.0,0.0,1.49
1877.0,0.0,1.68
1879.0,0.0,1.77
1881.0,0.0,1.77
1883.0,0.0,1.73
1885.0,0.0,1.81
1886.0,0.0,1.99
1888.0,0.0,2.15
1890.0,0.0,2.23
1892.0,0.0,2.38
1894.0,0.0,2.3
1896.0,0.0,2.29
1898.0,0.0,2.29
1900.0,0.0,2.35
1902.0,0.0,2.4
1904.0,0.0,2.45
1906.0,0.0,2.52
1908.0,0.0,2.64
1911.0,0.0,2.64
1913.0,0.0,2.72
1915.0,0.0,2.74
1917.0,0.0,2.78
1919.0,0.0,2.82
1921.0,0.0,3.11
1923.0,0.0,3.1
1925.0,0.0,2.97
1927.0,0.0,2.99
1929.0,0.0,2.95
1930.0,0.0,2.85
1932.0,0.0,2.57
1934.0,0.0,2.41
1936.0,0.0,2.42
1938.0,0.0,2.48
1940.0,0.0,2.5
1942.0,0.0,2.69
1944.0,0.0,2.74
1946.0,0.0,2.69
1948.0,0.0,2.79
1950.0,0.0,2.79
1952.0,0.0,2.7
1955.0,0.0,2.54
1957.0,0.0,2.42
1959.0,0.0,2.21
1961.0,0.0,1.87
1963.0,0.0,1.65
1965.0,0.0,1.5
1967.0,0.0,1.5
1969.0,0.0,1.62
1971.0,0.0,1.59
1972.0,0.0,1.69
1974.0,0.0,1.79
1976.0,0.0,1.67
1978.0,0.0,1.6
1980.0,0.0,1.55
1982.0,0.0,1.51
1984.0,0.0,1.48
1986.0,0.0,1.53
1988.0,0.0,1.49
1990.0,0.0,1.55
1992.0,0.0,1.64
1994.0,0.0,1.56
1997.0,0.0,1.62
1999.0,0.0,1.52
2001.0,0.0,1.34
2003.0,0.0,1.31
2005.0,0.0,1.19
2007.0,0.0,1.06
2009.0,0.0,1.15
2011.0,0.0,1.42
2013.0,0.0,1.48
2015.0,0.0,1.5
2016.0,0.0,1.53
2018.0,0.0,1.64
2020.0,0.46,1.6
2022.0,1.19,1.62
2024.0,1.79,1.74
2026.0,2.33,1.76
2028.0,2.82,1.69
2030.0,3.05,1.67
2032.0,3.2,1.64
2034.0,3.3,1.63
2036.0,3.3,1.67
2039.0,3.3,1.83
2041.0,3.3,1.94
2043.0,3.1,1.91
2045.0,2.87,1.82
2047.0,3.03,2.01
2049.0,3.19,2.01
2051.0,2.84,1.96
2053.0,2.77,2.16
2055.0,2.79,2.18
2057.0,2.4,2.09
2058.0,2.09,2.05
2060.0,2.31,1.89
2062.0,2.72,1.75
2064.0,2.46,1.59
2066.0,2.59,1.59
2068.0,3.07,1.51
2070.0,3.3,1.56
2072.0,3.3,1.48
2074.0,3.3,1.59
2076.0,3.3,1.63
2078.0,3.3,1.67
2080.0,3.3,1.66
2083.0,2.97,1.66
2085.0,2.66,1.54
2087.0,2.66,1.66
2089.0,2.03,1.72
2091.0,1.43,1.84
2093.0,1.62,1.86
2095.0,1.81,1.84
2097.0,1.76,1.91
2099.0,2.13,1.96
2101.0,3.06,1.96
2102.0,3.3,1.94
2104.0,3.3,1.77
2106.0,3.3,1.88
2108.0,3.3,2.02
2110.0,3.3,2.02
2112.0,3.3,2.11
2114.0,3.3,2.11
2116.0,3.3,2.19
2118.0,3.3,2.19
2120.0,3.3,2.08
2122.0,3.3,2.02
2125.0,3.3,1.96
2127.0,3.3,1.89
2129.0,3.3,1.87
2131.0,3.3,1.88
2133.0,3.3,1.9
2135.0,3.3,1.91
2137.0,3.3,1.89
2139.0,3.3,1.83
2141.0,3.3,1.69
2143.0,3.3,1.55
2145.0,3.3,1.56
2146.0,3.3,1.45
2148.0,3.3,1.38
2150.0,3.3,1.38
2152.0,3.3,1.38
2154.0,3.3,1.3
2156.0,3.3,1.15
2158.0,3.3,1.05
2160.0,3.3,0.93
2162.0,3.3,0.88
2164.0,3.3,0.89
2167.0,3.3,0.94
2169.0,3.3,0.98
2171.0,3.3,0.98
2173.0,3.3,0.88
2175.0,3.3,0.89
2177.0,3.3,0.87
2179.0,3.3,0.96
2181.0,3.3,1.07
2183.0,3.3,0.98
2185.0,3.3,0.83
2187.0,3.3,0.86
2188.0,3.3,0.88
2190.0,3.3,0.92
2192.0,3.3,1.04
2194.0,3.3,0.94
2196.0,3.3,0.93
2198.0,3.3,0.9
2200.0,3.3,0.81
2202.0,3.3,0.68
2204.0,3.3,0.72
2206.0,3.3,0.76
2208.0,3.3,0.8
2211.0,3.3,0.76
2213.0,3.3,0.75
2215.0,3.3,0.83
2217.0,3.3,0.89
2219.0,3.3,0.97
2221.0,3.3,1.02
2223.0,3.3,1.02
2225.0,3.3,0.88
2227.0,3.3,0.95
2229.0,3.3,1.04
2231.0,3.3,1.15
2232.0,3.3,1.25
2234.0,3.3,1.19
2236.0,3.3,1.35
2238.0,3.3,1.36
2240.0,3.3,1.22
2242.0,3.3,1.24
2244.0,3.3,1.15
2246.0,3.3,1.17
2248.0,3.3,1.18
2250.0,3.3,1.27
2253.0,3.3,1.34
2255.0,3.3,1.31
2257.0,3.3,1.28
2259.0,3.3,1.25
2261.0,3.3,1.17
2263.0,3.3,1.01
2265.0,3.3,0.87
2267.0,3.3,0.88
2269.0,3.3,0.95
2271.0,3.3,0.82
2273.0,3.3,0.89
2274.0,3.3,0.96
2276.0,3.3,1.03
2278.0,3.3,1.1
2280.0,3.3,1.08
2282.0,3.3,1.0
2284.0,3.3,0.96
2286.0,3.3,1.08
2288.0,3.3,1.09
2290.0,3.3,1.13
2292.0,3.3,1.21
2295.0,3.3,1.27
2297.0,3.3,1.32
2299.0,3.3,1.45
2301.0,3.3,1.34
2303.0,3.3,1.38
2305.0,3.3,1.26
2307.0,3.3,1.3
2309.0,3.3,1.39
2311.0,3.3,1.33
2313.0,3.3,1.35
2315.0,3.3,1.32
2317.0,3.3,1.29
2318.0,3.3,1.32
2320.0,3.3,1.29
2322.0,3.3,1.08
2324.0,3.3,1.02
2326.0,3.3,1.17
2328.0,3.3,1.26
2330.0,3.3,1.38
2332.0,3.3,1.42
2334.0,3.3,1.42
2336.0,3.3,1.5
2339.0,3.3,1.66
2341.0,3.3,1.6
2343.0,3.3,1.65
2345.0,3.3,1.58
2347.0,3.3,1.57
2349.0,3.3,1.56
2351.0,3.3,1.55
2353.0,3.3,1.47
2355.0,3.3,1.41
2357.0,3.3,1.31
2359.0,3.3,1.3
2360.0,3.3,1.25
2362.0,3.3,1.14
2364.0,3.3,1.04
2366.0,3.3,1.23
2368.0,3.3,1.46
2370.0,3.3,1.58
2372.0,3.3,1.67
2374.0,3.3,1.71
2376.0,3.3,1.76
2378.0,3.22,1.82
2381.0,3.13,1.77
2383.0,3.07,1.67
2385.0,2.97,1.6
2387.0,3.0,1.64
2389.0,2.98,1.76
2391.0,2.84,1.86
2393.0,2.68,1.73
2395.0,2.49,1.66
2397.0,2.39,1.68
2399.0,2.37,1.65
2401.0,2.44,1.6
2403.0,2.55,1.48
2404.0,2.6,1.4
2406.0,2.65,1.48
2408.0,2.66,1.56
2410.0,2.61,1.54
2412.0,2.51,1.57
2414.0,2.36,1.59
2416.0,2.2,1.75
2418.0,2.04,1.8
2420.0,2.1,1.74
2423.0,2.15,1.64
2425.0,2.16,1.6
2427.0,2.11,1.53
2429.0,1.98,1.48
2431.0,1.75,1.41
2433.0,1.56,1.39
2435.0,1.36,1.47
2437.0,1.25,1.62
2439.0,1.21,1.71
2441.0,1.2,1.68
2443.0,1.2,1.6
2445.0,1.24,1.53
2447.0,1.22,1.58
2448.0,1.14,1.68
2450.0,1.1,1.66
2452.0,1.06,1.62
2454.0,1.0,1.63
2456.0,1.0,1.66
2458.0,1.07,1.69
2460.0,1.17,1.69
2462.0,1.31,1.65
2464.0,1.43,1.65
2467.0,1.49,1.73
2469.0,1.5,1.77
2471.0,1.44,1.72
2473.0,1.4,1.72
2475.0,1.28,1.72
2477.0,1.21,1.77
2479.0,1.18,1.86
2481.0,1.2,1.89
2483.0,1.26,1.92
2485.0,1.32,1.81
2487.0,1.43,1.85
2489.0,1.39,1.82
2490.0,1.33,1.75
2492.0,1.22,1.65
2494.0,0.96,1.52
2496.0,0.93,1.51
2498.0,0.89,1.48
2500.0,0.96,1.43
2502.0,1.08,1.43
2504.0,1.25,1.44
2506.0,1.29,1.56
2509.0,1.29,1.59
2511.0,1.29,1.64
2513.0,1.34,1.69
2515.0,1.21,1.75
2517.0,1.22,1.81
2519.0,1.34,1.87
2521.0,1.55,1.84
2523.0,1.74,1.82
2525.0,1.86,1.76
2527.0,1.95,1.73
2529.0,2.01,1.73
2531.0,1.95,1.59
2533.0,1.74,1.31
2534.0,1.56,1.44
2536.0,1.49,1.5
2538.0,1.45,1.55
2540.0,1.52,1.59
2542.0,1.59,1.57
2544.0,1.55,1.51
2546.0,1.55,1.53
2548.0,1.55,1.52
2551.0,1.57,1.59
2553.0,1.48,1.65
2555.0,1.34,1.63
2557.0,1.28,1.68
2559.0,1.24,1.73
2561.0,1.23,1.7
2563.0,1.3,1.72
2565.0,1.35,1.57
2567.0,1.38,1.5
2569.0,1.39,1.52
2571.0,1.24,1.49
2573.0,1.05,1.43
2575.0,0.89,1.4
2577.0,0.79,1.5
2578.0,0.77,1.55
2580.0,0.8,1.52
2582.0,0.86,1.42
2584.0,0.84,1.31
2586.0,0.83,1.36
2588.0,0.85,1.37
2590.0,0.81,1.4
2592.0,0.75,1.45
2595.0,0.66,1.46
2597.0,0.77,1.51
2599.0,0.87,1.54
2601.0,0.92,1.52
2603.0,1.0,1.52
2605.0,1.0,1.49
2607.0,0.91,1.59
2609.0,0.79,1.65
2611.0,0.75,1.68
2613.0,0.59,1.61
2615.0,0.45,1.52
2617.0,0.45,1.54
2619.0,0.44,1.57
2621.0,0.51,1.53
2622.0,0.66,1.51
2624.0,0.75,1.45
2626.0,0.79,1.49
2628.0,0.71,1.52
2630.0,0.59,1.63
2632.0,0.41,1.52
2634.0,0.18,1.53
2637.0,0.05,1.6
2639.0,0.05,1.64
2641.0,0.11,1.61
2643.0,0.32,1.48
2645.0,0.44,1.41
2647.0,0.55,1.47
2649.0,0.51,1.52
2651.0,0.49,1.62
2653.0,0.47,1.61
2655.0,0.39,1.59
2657.0,0.39,1.62
2659.0,0.5,1.67
2661.0,0.6,1.67
2663.0,0.62,1.56
2665.0,0.65,1.47
2666.0,0.75,1.48
2668.0,0.77,1.41
2670.0,0.75,1.42
2672.0,0.78,1.39
2674.0,0.71,1.34
2676.0,0.67,1.27
2679.0,0.6,1.45
2681.0,0.7,1.39
2683.0,0.8,1.26
2685.0,0.91,1.22
2687.0,1.04,1.16
2689.0,1.05,1.12
2691.0,1.05,1.16
2693.0,1.05,1.13
2695.0,0.93,1.08
2697.0,0.94,1.11
2699.0,0.96,1.2
2701.0,1.08,1.19
2703.0,1.15,1.22
2705.0,1.21,1.23
2707.0,1.17,1.29
2708.0,1.08,1.39
2710.0,1.05,1.47
2712.0,1.1,1.55
2714.0,1.08,1.5
2716.0,1.14,1.54
2718.0,1.23,1.59
2720.0,1.41,1.48
2723.0,1.51,1.33
2725.0,1.63,1.3
2727.0,1.73,1.35
2729.0,1.78,1.36
2731.0,1.72,1.32
2733.0,1.68,1.23
2735.0,1.51,1.13
2737.0,1.49,1.19
2739.0,1.57,1.28
2741.0,1.65,1.21
2743.0,1.71,1.16
2745.0,1.73,1.07
2747.0,1.71,1.09
2749.0,1.6,1.15
2750.0,1.49,1.19
2752.0,1.37,1.25
2754.0,1.23,1.26
2756.0,1.27,1.27
2758.0,1.39,1.19
2760.0,1.48,1.24
2762.0,1.54,1.17
2765.0,1.51,1.09
2767.0,1.55,1.11
2769.0,1.49,1.11
2771.0,1.34,1.06
2773.0,1.27,1.18
2775.0,1.13,1.23
2777.0,1.11,1.28
2779.0,1.15,1.26
2781.0,1.19,1.1
2783.0,1.32,1.12
2785.0,1.35,1.12
2787.0,1.35,1.2
2789.0,1.28,1.21
2791.0,1.22,1.12
2793.0,1.18,1.04
2794.0,1.01,1.0
2796.0,0.93,1.08
2798.0,0.95,1.14
2800.0,1.01,1.18
2802.0,1.1,1.12
2804.0,1.16,0.99
2807.0,1.17,1.07
2809.0,1.05,1.02
2811.0,1.02,1.05
2813.0,0.93,1.03
2815.0,0.77,1.02
2817.0,0.8,0.99
2819.0,0.84,0.93
2821.0,0.93,0.79
2823.0,1.04,0.75
2825.0,1.16,0.79
2827.0,1.23,0.85
2829.0,1.28,0.78
2831.0,1.31,0.78
2833.0,1.36,0.77
2835.0,1.34,0.7
2836.0,1.28,0.6
2838.0,1.22,0.6
2840.0,1.21,0.6
2842.0,1.3,0.51
2844.0,1.33,0.33
2846.0,1.25,0.37
2848.0,1.25,0.48
2851.0,1.22,0.45
2853.0,1.14,0.49
2855.0,1.06,0.61
2857.0,1.07,0.65
2859.0,1.1,0.65
2861.0,1.19,0.43
2863.0,1.33,0.45
2865.0,1.31,0.51
2867.0,1.28,0.5
2869.0,1.31,0.51
2871.0,1.32,0.47
2873.0,1.26,0.37
2875.0,1.09,0.37
2877.0,1.05,0.25
2879.0,0.99,0.0
2880.0,1.05,0.0
2882.0,1.04,0.0
2884.0,0.9,0.0
2886.0,0.85,0.0
2888.0,0.78,0.0
2890.0,0.66,0.0
2893.0,0.56,0.0
2895.0,0.4,0.0
2897.0,0.41,0.0
2899.0,0.41,0.0
2901.0,0.54,0.0
2903.0,0.64,0.0
2905.0,0.74,0.0
2907.0,0.85,0.0
2909.0,0.74,0.0
2911.0,0.56,0.0
2913.0,0.52,0.0
2915.0,0.38,0.0
2917.0,0.21,0.0
2919.0,0.08,0.0
2921.0,0.3,0.0
2922.0,0.33,0.0
2924.0,0.37,0.0
2926.0,0.37,0.0
2928.0,0.2,0.0
2930.0,0.07,0.0
2932.0,0.07,0.0
2935.0,0.11,0.0
2937.0,0.17,0.0
2939.0,0.36,0.0
2941.0,0.53,0.0
2943.0,0.41,0.0
2945.0,0.5,0.0
2947.0,0.89,0.0
2949.0,0.5,0.0
2951.0,0.32,0.0
2953.0,0.26,0.0
2955.0,0.13,0.0
2957.0,0.0,0.0
2959.0,0.0,0.0
2961.0,0.0,0.0
2963.0,0.0,0.0
2965.0,0.0,0.0
2966.0,0.08,0.0
2968.0,0.14,0.0
2970.0,0.36,0.0
2972.0,0.25,0.23
2974.0,0.0,0.37
2976.0,0.0,0.44
2979.0,0.0,0.47
2981.0,0.0,0.35
2983.0,0.0,0.32
2985.0,0.0,0.52
2987.0,0.32,0.65
2989.0,0.37,0.85
2991.0,0.39,0.88
2993.0,0.56,0.83
2995.0,0.83,0.85
2997.0,0.69,1.04
2999.0,0.52,1.29
3001.0,0.58,1.08
3003.0,0.69,1.07
3005.0,0.74,1.15
3007.0,0.63,1.26
3008.0,0.44,1.42
3010.0,0.31,1.41
3012.0,0.15,1.59
3014.0,0.09,2.02
3016.0,0.58,2.23
3018.0,1.09,2.27
3021.0,1.07,2.33
3023.0,1.14,2.28
3025.0,1.19,2.28
3027.0,1.01,2.48
3029.0,1.22,2.58
3031.0,1.29,2.68
3033.0,1.11,2.92
3035.0,1.2,3.16
3037.0,1.23,3.3
3039.0,1.01,3.3
3041.0,0.95,3.3
3043.0,1.3,3.3
3045.0,1.79,3.3
3047.0,1.71,3.3
3049.0,2.1,3.3
3051.0,2.25,3.3
3052.0,2.19,3.3
3054.0,2.36,3.3
3056.0,2.78,3.3
3058.0,2.53,3.3
3060.0,1.72,3.3
3063.0,1.24,3.23
3065.0,1.5,3.12
3067.0,1.99,3.13
3069.0,2.12,2.98
3071.0,2.28,2.84
3073.0,2.39,2.76
3075.0,2.39,2.68
3077.0,2.14,2.64
3079.0,2.29,2.7
3081.0,2.62,2.62
3083.0,2.77,2.57
3085.0,3.13,2.47
3087.0,3.12,2.4
3089.0,3.18,2.49
3091.0,3.11,2.6
3093.0,2.65,2.65
3095.0,2.22,2.66
3096.0,2.01,2.73
3098.0,1.82,2.93
3100.0,2.11,3.09
3102.0,2.27,3.14
3104.0,2.44,3.11
3107.0,2.66,3.27
3109.0,3.0,3.3
3111.0,3.23,3.3
3113.0,3.03,3.3
3115.0,2.94,3.3
3117.0,2.81,3.3
3119.0,2.87,3.3
3121.0,3.02,3.3
3123.0,3.29,3.3
3125.0,3.21,3.3
3127.0,3.08,3.3
3129.0,3.21,3.3
3131.0,3.3,3.3
3133.0,3.3,3.3
3135.0,3.12,3.3
3137.0,2.97,3.3
3138.0,2.99,3.3
3140.0,3.09,3.3
3142.0,3.1,3.3
3144.0,3.19,3.3
3146.0,3.3,3.3
3149.0,3.3,3.3
3151.0,3.3,3.3
3153.0,3.3,3.3
3155.0,3.26,3.3
3157.0,3.25,3.3
3159.0,3.29,3.3
3161.0,3.3,3.3
3163.0,3.3,3.3
3165.0,3.3,3.17
3167.0,3.28,3.2
3169.0,3.04,3.21
3171.0,2.73,3.16
3173.0,2.56,3.09
3175.0,2.38,2.89
3177.0,2.31,2.77
3179.0,2.21,2.75
3181.0,2.21,2.63
3182.0,2.38,2.57
3184.0,2.52,2.44
3186.0,2.59,2.42
3188.0,2.55,2.38
3191.0,2.53,2.28
3193.0,2.48,2.25
3195.0,2.35,2.17
3197.0,2.26,2.03
3199.0,2.25,1.84
3201.0,2.24,1.75
3203.0,2.24,1.68
3205.0,2.11,1.49
3207.0,2.04,1.47
3209.0,1.88,1.48
3211.0,1.8,1.59
3213.0,1.73,1.67
3215.0,1.59,1.68
3217.0,1.53,1.74
3219.0,1.44,1.8
3221.0,1.55,1.71
3223.0,1.62,1.67
3225.0,1.64,1.6
3226.0,1.63,1.59
3228.0,1.56,1.65
3230.0,1.48,1.77
3232.0,1.32,1.82
3235.0,1.23,1.84
3237.0,1.25,1.95
3239.0,1.21,2.0
3241.0,1.3,1.95
3243.0,1.37,1.87
3245.0,1.32,1.69
3247.0,1.28,1.68
3249.0,1.24,1.52
3251.0,1.24,1.48
3253.0,1.22,1.65
3255.0,1.12,1.61
3257.0,1.19,1.53
3259.0,1.2,1.55
3261.0,1.32,1.48
3263.0,1.54,1.46
3265.0,1.65,1.34
3267.0,1.79,1.34
3269.0,1.8,1.39
3270.0,1.7,1.43
3272.0,1.59,1.48
3274.0,1.41,1.57
3277.0,1.41,1.56
3279.0,1.35,1.6
3281.0,1.41,1.64
3283.0,1.48,1.57
3285.0,1.47,1.47
3287.0,1.5,1.41
3289.0,1.44,1.4
3291.0,1.4,1.51
3293.0,1.42,1.68
3295.0,1.35,1.69
3297.0,1.55,1.71
3299.0,1.59,1.73
3301.0,1.65,1.69
3303.0,1.78,1.71
3305.0,1.72,1.55
3307.0,1.68,1.47
3309.0,1.65,1.51
3311.0,1.59,1.6
3312.0,1.5,1.61
3314.0,1.38,1.59
3316.0,1.36,1.65
3319.0,1.38,1.72
3321.0,1.53,1.83
3323.0,1.71,1.89
3325.0,1.68,1.75
3327.0,1.61,1.71
3329.0,1.58,1.76
3331.0,1.46,1.71
3333.0,1.46,1.79
3335.0,1.37,1.78
3337.0,1.4,1.74
3339.0,1.42,1.94
3341.0,1.5,1.93
3343.0,1.63,1.88
3345.0,1.66,1.76
3347.0,1.66,1.61
3349.0,1.63,1.64
3351.0,1.57,1.64
3353.0,1.51,1.7
3355.0,1.37,1.68
3356.0,1.28,1.8
3358.0,1.19,1.83
3360.0,1.27,1.86
3363.0,1.31,1.76
3365.0,1.32,1.67
3367.0,1.36,1.71
3369.0,1.3,1.76
3371.0,1.17,1.71
3373.0,1.13,1.77
3375.0,0.93,1.8
3377.0,0.82,1.75
3379.0,0.78,1.63
3381.0,0.88,1.47
3383.0,1.04,1.4
3385.0,1.07,1.24
3387.0,1.12,1.21
3389.0,1.14,1.24
3391.0,1.11,1.26
3393.0,1.09,1.25
3395.0,1.02,1.31
3397.0,1.07,1.39
3398.0,1.09,1.39
3400.0,1.2,1.37
3402.0,1.36,1.27
3405.0,1.38,1.14
3407.0,1.37,1.18
3409.0,1.39,1.24
3411.0,1.3,1.22
3413.0,1.2,1.17
3415.0,1.07,1.13
3417.0,1.04,1.13
3419.0,1.07,1.2
3421.0,1.12,1.15
3423.0,1.17,1.07
3425.0,1.22,1.04
3427.0,1.27,1.11
3429.0,1.17,1.09
3431.0,1.08,1.15
3433.0,1.05,1.25
3435.0,0.95,1.2
3437.0,0.94,1.2
3439.0,0.93,1.19
3440.0,1.04,1.25
3442.0,1.12,1.22
3444.0,1.18,1.14
3447.0,1.26,1.13
3449.0,1.29,1.09
3451.0,1.23,1.08
3453.0,1.19,1.2
3455.0,1.05,1.16
3457.0,1.06,1.2
3459.0,1.07,1.28
3461.0,1.14,1.32
3463.0,1.22,1.22
3465.0,1.28,1.08
3467.0,1.32,1.08
3469.0,1.31,1.06
3471.0,1.19,1.05
3473.0,1.12,1.06
3475.0,0.99,1.1
3477.0,0.96,1.18
3479.0,0.99,1.19
3481.0,1.07,1.05
3483.0,1.2,1.0
3484.0,1.27,0.89
3486.0,1.32,0.91
3488.0,1.3,0.94
3491.0,1.24,0.94
3493.0,1.17,0.99
3495.0,1.01,1.02
3497.0,0.96,1.03
3499.0,1.01,1.16
3501.0,1.05,1.1
3503.0,1.11,0.94
3505.0,1.15,0.81
3507.0,1.2,0.86
3509.0,1.13,0.84
3511.0,1.06,0.87
3513.0,0.99,0.92
3515.0,0.84,0.9
3517.0,0.83,0.93
3519.0,0.8,0.95
3521.0,0.87,0.91
3523.0,0.97,0.85
3525.0,1.02,0.73
3527.0,1.06,0.77
3528.0,1.0,0.92
3530.0,0.93,0.96
3533.0,0.86,0.94
3535.0,0.77,0.98
3537.0,0.82,1.04
3539.0,0.88,1.09
3541.0,0.97,1.08
3543.0,1.08,1.02
3545.0,1.12,1.0
3547.0,1.18,1.1
3549.0,1.16,1.09
3551.0,1.11,1.08
3553.0,1.05,1.08
3555.0,0.96,1.07
3557.0,1.03,1.19
3559.0,1.02,1.24
3561.0,1.11,1.23
3563.0,1.29,1.23
3565.0,1.33,1.15
3567.0,1.41,1.2
3569.0,1.39,1.23
3570.0,1.38,1.29
3572.0,1.35,1.42
3575.0,1.29,1.41
3577.0,1.27,1.4
3579.0,1.27,1.41
3581.0,1.4,1.43
3583.0,1.49,1.38
3585.0,1.52,1.25
3587.0,1.55,1.26
3589.0,1.5,1.23
3591.0,1.43,1.22
3593.0,1.36,1.19
3595.0,1.19,1.15
3597.0,1.15,1.28
3599.0,1.12,1.34
3601.0,1.2,1.25
3603.0,1.3,1.3
3605.0,1.36,1.25
3607.0,1.42,1.23
3609.0,1.37,1.2
3611.0,1.31,1.23
3613.0,1.26,1.23
3614.0,1.14,1.25
3616.0,1.14,1.24
3619.0,1.21,1.17
3621.0,1.38,1.19
3623.0,1.45,1.13
3625.0,1.41,1.02
3627.0,1.46,1.12
3629.0,1.43,1.11
3631.0,1.38,1.22
3633.0,1.36,1.25
3635.0,1.3,1.26
3637.0,1.36,1.35
3639.0,1.41,1.4
3641.0,1.46,1.4
3643.0,1.53,1.42
3645.0,1.57,1.36
3647.0,1.6,1.42
3649.0,1.57,1.39
3651.0,1.55,1.46
3653.0,1.47,1.44
3655.0,1.29,1.42
3656.0,1.27,1.46
3658.0,1.27,1.5
3661.0,1.38,1.53
3663.0,1.5,1.45
3665.0,1.52,1.34
3667.0,1.6,1.39
3669.0,1.55,1.44
3671.0,1.45,1.42
3673.0,1.44,1.54
3675.0,1.28,1.51
3677.0,1.25,1.49
3679.0,1.27,1.52
3681.0,1.35,1.45
3683.0,1.45,1.45
3685.0,1.48,1.37
3687.0,1.57,1.41
3689.0,1.6,1.47
3691.0,1.52,1.41
3693.0,1.51,1.41
3695.0,1.36,1.42
3697.0,1.34,1.45
3699.0,1.46,1.55
3700.0,1.52,1.59
3703.0,1.59,1.56
3705.0,1.6,1.49
3707.0,1.63,1.52
3709.0,1.58,1.55
3711.0,1.57,1.55
3713.0,1.52,1.57
3715.0,1.39,1.56
3717.0,1.35,1.61
3719.0,1.37,1.64
3721.0,1.43,1.65
3723.0,1.47,1.62
3725.0,1.5,1.53
3727.0,1.5,1.54
3729.0,1.48,1.61
3731.0,1.48,1.67
3733.0,1.43,1.67
3735.0,1.28,1.58
3737.0,1.3,1.66
3739.0,1.33,1.65
3741.0,1.35,1.51
3742.0,1.44,1.46
3744.0,1.47,1.4
3747.0,1.49,1.41
3749.0,1.5,1.46
3751.0,1.43,1.36
3753.0,1.36,1.27
3755.0,1.21,1.29
3757.0,1.21,1.37
3759.0,1.21,1.43
3761.0,1.35,1.48
3763.0,1.48,1.47
3765.0,1.48,1.36
3767.0,1.53,1.45
3769.0,1.49,1.39
3771.0,1.45,1.43
3773.0,1.42,1.49
3775.0,1.26,1.4
3777.0,1.29,1.38
3779.0,1.24,1.42
3781.0,1.34,1.39
3783.0,1.43,1.35
3785.0,1.45,1.24
3786.0,1.52,1.26
3789.0,1.51,1.25
3791.0,1.49,1.27
3793.0,1.44,1.21
3795.0,1.27,1.12
3797.0,1.25,1.15
3799.0,1.24,1.19
3801.0,1.37,1.14
3803.0,1.47,1.05
3805.0,1.49,1.02
3807.0,1.51,1.12
3809.0,1.55,1.15
3811.0,1.48,1.13
3813.0,1.41,1.17
3815.0,1.26,1.13
3817.0,1.26,1.2
3819.0,1.25,1.18
3821.0,1.33,1.1
3823.0,1.38,1.08
3825.0,1.45,1.05
3827.0,1.53,1.14
3829.0,1.49,1.18
3831.0,1.43,1.27
3833.0,1.35,1.35
3835.0,1.2,1.37
3837.0,1.16,1.39
3839.0,1.16,1.33
3841.0,1.28,1.33
3843.0,1.39,1.38
3845.0,1.47,1.32
3847.0,1.59,1.32
3849.0,1.57,1.32
3851.0,1.49,1.31
3853.0,1.48,1.33
3855.0,1.35,1.3
3857.0,1.34,1.37
3859.0,1.39,1.4
3861.0,1.47,1.39
3863.0,1.61,1.44
3865.0,1.59,1.4
3867.0,1.65,1.45
3869.0,1.56,1.47
3871.0,1.49,1.52
3872.0,1.42,1.48
3875.0,1.29,1.47
3877.0,1.3,1.55
3879.0,1.31,1.58
3881.0,1.43,1.57
3883.0,1.55,1.47
3885.0,1.54,1.38
3887.0,1.57,1.42
3889.0,1.5,1.43
3891.0,1.42,1.45
3893.0,1.44,1.53
3895.0,1.31,1.53
3897.0,1.29,1.55
3899.0,1.33,1.61
3901.0,1.46,1.63
3903.0,1.57,1.59
3905.0,1.58,1.5
3907.0,1.62,1.52
3909.0,1.57,1.56
3911.0,1.58,1.71
3913.0,1.51,1.74
3914.0,1.35,1.71
3917.0,1.35,1.75
3919.0,1.35,1.73
3921.0,1.43,1.69
3923.0,1.53,1.63
3925.0,1.6,1.6
3927.0,1.65,1.63
3929.0,1.6,1.66
3931.0,1.54,1.64
3933.0,1.48,1.64
3935.0,1.33,1.61
3937.0,1.34,1.62
3939.0,1.37,1.63
3941.0,1.45,1.57
3943.0,1.53,1.51
3945.0,1.55,1.44
3947.0,1.59,1.44
3949.0,1.62,1.45
3951.0,1.56,1.56
3953.0,1.46,1.62
3955.0,1.3,1.57
3957.0,1.32,1.63
3959.0,1.33,1.7
3961.0,1.41,1.62
3963.0,1.57,1.62
3965.0,1.59,1.57
3967.0,1.63,1.6
3969.0,1.57,1.58
3971.0,1.47,1.48
3973.0,1.41,1.55
3975.0,1.36,1.61
3977.0,1.35,1.72
3979.0,1.34,1.85
3981.0,1.48,1.91
3983.0,1.53,1.79
3985.0,1.54,1.65
3987.0,1.55,1.69
3989.0,1.55,1.69
3991.0,1.45,1.7
3993.0,1.39,1.71
3995.0,1.23,1.66
3997.0,1.31,1.69
3999.0,1.28,1.65
4002.0,1.38,1.58
4003.0,1.49,1.5
4005.0,1.54,1.33
4007.0,1.6,1.4
4009.0,1.57,1.5
4011.0,1.49,1.52
4013.0,1.42,1.47
4015.0,1.27,1.44
4017.0,1.26,1.48
4019.0,1.26,1.41
4021.0,1.32,1.36
4023.0,1.41,1.33
4025.0,1.46,1.22
4027.0,1.56,1.31
4029.0,1.51,1.33
4031.0,1.43,1.28
4033.0,1.37,1.31
4035.0,1.25,1.35
4037.0,1.27,1.51
4039.0,1.27,1.54
4041.0,1.37,1.52
4043.0,1.49,1.41
4045.0,1.51,1.35
4047.0,1.6,1.42
4049.0,1.56,1.45
4051.0,1.49,1.45
4053.0,1.4,1.37
4055.0,1.22,1.33
4057.0,1.21,1.39
4059.0,1.17,1.42
4061.0,1.25,1.46
4063.0,1.39,1.4
4065.0,1.42,1.26
4067.0,1.46,1.29
4069.0,1.43,1.38
4071.0,1.35,1.4
4073.0,1.33,1.46
4075.0,1.21,1.45
4077.0,1.25,1.49
4079.0,1.33,1.52
4081.0,1.4,1.61
4083.0,1.52,1.64
4085.0,1.56,1.59
4087.0,1.56,1.65
4089.0,1.5,1.65
4091.0,1.4,1.61
4093.0,1.36,1.61
4095.0,1.23,1.6
4097.0,1.23,1.66
4099.0,1.22,1.63
4101.0,1.35,1.65
4103.0,1.47,1.6
4105.0,1.5,1.5
4107.0,1.54,1.6
4109.0,1.5,1.59
4111.0,1.38,1.6
4113.0,1.32,1.68
4115.0,1.17,1.6
4117.0,1.19,1.63
4119.0,1.2,1.73
4121.0,1.29,1.63
4123.0,1.4,1.52
4125.0,1.43,1.38
4127.0,1.5,1.44
4130.0,1.44,1.42
4131.0,1.36,1.45
4133.0,1.31,1.45
4135.0,1.22,1.49
4137.0,1.28,1.57
4139.0,1.32,1.56
4141.0,1.41,1.54
4143.0,1.5,1.51
4145.0,1.58,1.42
4147.0,1.64,1.45
4149.0,1.66,1.54
4151.0,1.53,1.46
4153.0,1.48,1.48
4155.0,1.32,1.46
4157.0,1.33,1.54
4159.0,1.37,1.56
4161.0,1.46,1.46
4163.0,1.53,1.39
4165.0,1.57,1.32
4167.0,1.63,1.37
4169.0,1.6,1.32
4171.0,1.56,1.33
4173.0,1.45,1.27
4175.0,1.31,1.27
4177.0,1.3,1.27
4179.0,1.32,1.26
4181.0,1.45,1.23
4183.0,1.56,1.2
4185.0,1.59,1.09
4187.0,1.67,1.13
4189.0,1.66,1.15
4191.0,1.64,1.17
4193.0,1.6,1.14
4195.0,1.45,1.2
4197.0,1.43,1.35
4199.0,1.46,1.35
4201.0,1.52,1.26
4203.0,1.63,1.19
4205.0,1.69,1.12
4207.0,1.72,1.14
4209.0,1.65,1.1
4211.0,1.61,1.21
4213.0,1.55,1.25
4216.0,1.37,1.21
4217.0,1.4,1.27
4219.0,1.36,1.22
4221.0,1.42,1.12
4223.0,1.53,1.11
4225.0,1.55,1.01
4227.0,1.63,1.07
4229.0,1.61,1.06
4231.0,1.55,1.09
4233.0,1.44,1.13
4235.0,1.34,1.19
4237.0,1.39,1.27
4239.0,1.37,1.25
4241.0,1.43,1.25
4243.0,1.58,1.26
4245.0,1.59,1.22
4247.0,1.62,1.34
4249.0,1.53,1.34
4251.0,1.54,1.45
4253.0,1.45,1.49
4255.0,1.26,1.46
4258.0,1.27,1.55
4260.0,1.25,1.53
4261.0,1.32,1.5
4263.0,1.45,1.55
4265.0,1.49,1.47
4267.0,1.52,1.48
4269.0,1.49,1.45
4271.0,1.45,1.45
4273.0,1.38,1.51
4275.0,1.24,1.57
4277.0,1.21,1.75
4279.0,1.25,1.78
4281.0,1.33,1.72
4283.0,1.4,1.63
4285.0,1.45,1.53
4287.0,1.52,1.56
4289.0,1.48,1.56
4291.0,1.39,1.56
4293.0,1.34,1.64
4295.0,1.2,1.58
4297.0,1.23,1.6
4299.0,1.22,1.6
4302.0,1.34,1.56
4303.0,1.49,1.5
4305.0,1.49,1.38
4307.0,1.53,1.41
4309.0,1.47,1.45
4311.0,1.37,1.46
4313.0,1.36,1.41
4315.0,1.23,1.44
4317.0,1.27,1.49
4319.0,1.29,1.47
4321.0,1.39,1.46
4323.0,1.52,1.47
4325.0,1.53,1.42
4327.0,1.57,1.52
4329.0,1.52,1.52
4331.0,1.42,1.47
4333.0,1.39,1.49
4335.0,1.22,1.43
4337.0,1.18,1.36
4339.0,1.23,1.44
4341.0,1.34,1.4
4344.0,1.47,1.49
4346.0,1.48,1.43
4347.0,1.51,1.47
4349.0,1.47,1.47
4351.0,1.4,1.48
4353.0,1.35,1.42
4355.0,1.21,1.43
4357.0,1.18,1.49
4359.0,1.19,1.46
4361.0,1.29,1.44
4363.0,1.41,1.5
4365.0,1.43,1.39
4367.0,1.45,1.37
4369.0,1.42,1.34
4371.0,1.33,1.36
4373.0,1.3,1.48
4375.0,1.21,1.48
4377.0,1.21,1.6
4379.0,1.23,1.63
4381.0,1.35,1.57
4383.0,1.46,1.42
4386.0,1.48,1.37
4388.0,1.58,1.51
4390.0,1.52,1.45
4391.0,1.45,1.5
4393.0,1.39,1.54
4395.0,1.2,1.53
4397.0,1.17,1.56
4399.0,1.21,1.62
4401.0,1.3,1.62
4403.0,1.45,1.63
4405.0,1.48,1.55
4407.0,1.57,1.6
4409.0,1.49,1.56
4411.0,1.5,1.58
4413.0,1.38,1.53
4415.0,1.25,1.52
4417.0,1.26,1.58
4419.0,1.27,1.59
4421.0,1.36,1.57
4423.0,1.46,1.5
4425.0,1.44,1.46
4427.0,1.5,1.49
4430.0,1.44,1.45
4432.0,1.49,1.51
4434.0,1.36,1.45
4435.0,1.25,1.4
4437.0,1.32,1.51
4439.0,1.3,1.48
4441.0,1.35,1.45
4443.0,1.46,1.39
4445.0,1.51,1.25
4447.0,1.59,1.29
4449.0,1.55,1.23
4451.0,1.49,1.26
4453.0,1.42,1.28
4455.0,1.26,1.24
4457.0,1.31,1.4
4459.0,1.31,1.54
4461.0,1.37,1.55
4463.0,1.54,1.53
4465.0,1.55,1.38
4467.0,1.6,1.43
4469.0,1.48,1.48
4472.0,1.44,1.52
4474.0,1.42,1.52
4476.0,1.33,1.56
4478.0,1.32,1.61
4479.0,1.35,1.64
4481.0,1.44,1.5
4483.0,1.51,1.44
4485.0,1.54,1.33
4487.0,1.56,1.35
4489.0,1.57,1.46
4491.0,1.52,1.52
4493.0,1.44,1.46
4495.0,1.3,1.4
4497.0,1.31,1.44
4499.0,1.31,1.41
4501.0,1.43,1.42
4503.0,1.55,1.45
4505.0,1.55,1.25
4507.0,1.58,1.25
4509.0,1.6,1.31
4511.0,1.55,1.33
4514.0,1.49,1.27
4516.0,1.34,1.2
4518.0,1.35,1.32
4520.0,1.34,1.32
4521.0,1.42,1.25
4523.0,1.52,1.23
4525.0,1.56,1.25
4527.0,1.62,1.33
4529.0,1.58,1.41
4531.0,1.51,1.47
4533.0,1.44,1.41
4535.0,1.3,1.38
4537.0,1.32,1.42
4539.0,1.3,1.44
4541.0,1.4,1.58
4543.0,1.51,1.6
4545.0,1.52,1.49
4547.0,1.59,1.6
4549.0,1.57,1.59
4551.0,1.47,1.5
4553.0,1.44,1.54
4555.0,1.32,1.59
4558.0,1.3,1.62
4560.0,1.35,1.72
4562.0,1.52,1.73
4563.0,1.6,1.73
4565.0,1.64,1.78
4567.0,1.68,2.0
4569.0,1.62,1.99
4571.0,1.51,2.04
4573.0,1.49,2.12
4575.0,1.34,2.04
4577.0,1.29,1.98
4579.0,1.35,2.04
4581.0,1.42,1.96
4583.0,1.57,1.86
4585.0,1.57,1.73
4587.0,1.58,1.75
4589.0,1.54,1.86
4591.0,1.45,1.93
4593.0,1.38,1.91
4595.0,1.25,1.8
4597.0,1.2,1.84
4600.0,1.2,1.89
4602.0,1.33,1.85
4604.0,1.48,1.7
4606.0,1.48,1.63
4607.0,1.5,1.65
4609.0,1.48,1.67
4611.0,1.5,1.72
4613.0,1.43,1.73
4615.0,1.24,1.65
4617.0,1.23,1.66
4619.0,1.26,1.65
4621.0,1.34,1.67
4623.0,1.45,1.61
4625.0,1.44,1.61
4627.0,1.46,1.61
4629.0,1.38,1.62
4631.0,1.33,1.68
4633.0,1.25,1.72
4635.0,1.14,1.62
4637.0,1.2,1.57
4639.0,1.28,1.52
4642.0,1.37,1.33
4644.0,1.48,1.17
4646.0,1.49,1.07
4648.0,1.52,1.18
4650.0,1.43,1.15
4651.0,1.44,1.18
4653.0,1.36,1.11
4655.0,1.19,1.13
4657.0,1.2,1.16
4659.0,1.18,1.05
4661.0,1.25,0.99
4663.0,1.4,1.05
4665.0,1.42,1.06
4667.0,1.44,1.06
4669.0,1.4,1.12
4671.0,1.33,1.03
4673.0,1.25,0.98
4675.0,1.12,1.0
4677.0,1.13,1.05
4679.0,1.14,0.95
4681.0,1.25,0.83
4683.0,1.35,0.74
4686.0,1.39,0.68
4688.0,1.43,0.72
4690.0,1.37,0.65
4692.0,1.36,0.69
4694.0,1.29,0.74
4695.0,1.15,0.82
4697.0,1.19,0.82
4699.0,1.26,0.79
4701.0,1.39,0.84
4703.0,1.47,0.77
4705.0,1.52,0.65
4707.0,1.57,0.61
4709.0,1.54,0.63
4711.0,1.47,0.6
4713.0,1.39,0.54
4715.0,1.22,0.51
4717.0,1.29,0.78
4719.0,1.3,0.75
4721.0,1.44,0.73
4723.0,1.53,0.84
4725.0,1.55,0.85
4728.0,1.55,0.84
4730.0,1.51,0.91
4732.0,1.48,1.0
4734.0,1.44,1.12
4736.0,1.35,1.25
4738.0,1.38,1.29
4739.0,1.42,1.28
4741.0,1.51,1.24
4743.0,1.61,1.25
4745.0,1.61,1.17
4747.0,1.69,1.29
4749.0,1.6,1.24
4751.0,1.53,1.28
4753.0,1.46,1.18
4755.0,1.27,1.2
4757.0,1.28,1.3
4759.0,1.35,1.2
4761.0,1.46,1.05
4763.0,1.56,1.06
4765.0,1.58,1.11
4767.0,1.61,0.94
4770.0,1.52,0.85
4772.0,1.42,0.88
4774.0,1.44,0.96
4776.0,1.33,0.86
4778.0,1.35,0.86
4780.0,1.44,0.96
4782.0,1.51,0.86
4783.0,1.68,0.74
4785.0,1.7,0.65
4787.0,1.74,0.64
4789.0,1.65,0.44
4791.0,1.56,0.42
4793.0,1.42,0.88
4795.0,1.29,0.89
4797.0,1.28,1.0
4799.0,1.37,1.02
4801.0,1.51,1.03
4803.0,1.68,0.95
4805.0,1.68,0.77
4807.0,1.74,0.8
4809.0,1.64,0.81
4811.0,1.55,0.78
4814.0,1.51,0.74
4816.0,1.37,0.72
4818.0,1.38,0.67
4820.0,1.4,0.61
4822.0,1.5,0.65
4824.0,1.54,0.56
4825.0,1.52,0.53
4827.0,1.57,0.56
4829.0,1.47,0.55
4831.0,1.48,0.56
4833.0,1.44,0.53
4835.0,1.3,0.57
4837.0,1.31,0.65
4839.0,1.34,0.67
4841.0,1.52,0.73
4843.0,1.64,0.89
4845.0,1.64,0.93
4847.0,1.67,0.97
4849.0,1.65,0.97
4851.0,1.56,1.0
4853.0,1.48,1.19
4856.0,1.32,1.26
4858.0,1.33,1.34
4860.0,1.32,1.42
4862.0,1.45,1.45
4864.0,1.62,1.33
4866.0,1.72,1.26
4868.0,1.84,1.37
4869.0,1.76,1.45
4871.0,1.62,1.45
4873.0,1.51,1.56
4875.0,1.36,1.63
4877.0,1.41,1.76
4879.0,1.45,1.95
4881.0,1.54,1.98
4883.0,1.65,1.92
4885.0,1.67,1.9
4887.0,1.74,2.05
4889.0,1.67,2.09
4891.0,1.59,2.09
4893.0,1.51,2.15
4895.0,1.32,2.15
4898.0,1.31,2.21
4900.0,1.39,2.32
4902.0,1.48,2.25
4904.0,1.54,2.14
4906.0,1.57,2.14
4908.0,1.57,2.15
4910.0,1.55,2.23
4911.0,1.5,2.33
4913.0,1.41,2.35
4915.0,1.27,2.32
4917.0,1.27,2.34
4919.0,1.33,2.25
4921.0,1.45,2.18
4923.0,1.55,2.06
4925.0,1.59,1.91
4927.0,1.6,1.91
4929.0,1.57,1.94
4931.0,1.52,2.06
4933.0,1.43,2.02
4935.0,1.32,1.98
4937.0,1.34,2.12
4939.0,1.32,2.13
4942.0,1.42,2.05
4944.0,1.54,2.04
4946.0,1.55,1.94
4948.0,1.61,1.96
4950.0,1.55,1.9
4952.0,1.54,1.88
4954.0,1.45,1.86
4955.0,1.29,1.8
4957.0,1.32,1.87
4959.0,1.38,1.87
4961.0,1.45,1.76
4963.0,1.53,1.6
4965.0,1.53,1.47
4967.0,1.53,1.46
4969.0,1.49,1.43
4971.0,1.43,1.41
4973.0,1.38,1.55
4975.0,1.24,1.59
4977.0,1.23,1.6
4979.0,1.28,1.61
4981.0,1.36,1.68
4984.0,1.5,1.59
4986.0,1.48,1.53
4988.0,1.5,1.63
4990.0,1.45,1.67
4992.0,1.4,1.7
4994.0,1.3,1.71
4996.0,1.17,1.68
4998.0,1.22,1.7
4999.0,1.24,1.68
5001.0,1.35,1.67
5003.0,1.49,1.65
5005.0,1.55,1.6
5007.0,1.61,1.65
5009.0,1.61,1.69
5011.0,1.55,1.62
5013.0,1.44,1.5
5015.0,1.27,1.51
5017.0,1.25,1.6
5019.0,1.3,1.65
5021.0,1.38,1.68
5023.0,1.48,1.65
5026.0,1.54,1.62
5028.0,1.55,1.59
5030.0,1.52,1.55
5032.0,1.42,1.54
5034.0,1.38,1.62
5036.0,1.23,1.59
5038.0,1.26,1.62
5040.0,1.32,1.64
5042.0,1.43,1.63
5043.0,1.56,1.55
5045.0,1.61,1.45
5047.0,1.63,1.54
5049.0,1.55,1.55
5051.0,1.46,1.57
5053.0,1.41,1.52
5055.0,1.31,1.43
5057.0,1.31,1.53
5059.0,1.32,1.48
5061.0,1.43,1.51
5063.0,1.48,1.45
5065.0,1.55,1.43
5067.0,1.62,1.54
5070.0,1.59,1.51
5072.0,1.53,1.5
5074.0,1.45,1.53
5076.0,1.33,1.54
5078.0,1.3,1.53
5080.0,1.31,1.5
5082.0,1.44,1.48
5084.0,1.53,1.47
5085.0,1.59,1.48
5087.0,1.64,1.52
5089.0,1.59,1.57
5091.0,1.53,1.69
5093.0,1.51,1.7
5095.0,1.38,1.73
5097.0,1.35,1.83
5099.0,1.38,1.83
5101.0,1.46,1.79
5103.0,1.55,1.7
5105.0,1.58,1.68
5107.0,1.58,1.76
5109.0,1.55,1.73
5112.0,1.49,1.7
5114.0,1.42,1.67
5116.0,1.33,1.65
5118.0,1.34,1.68
5120.0,1.44,1.72
5122.0,1.52,1.61
5124.0,1.55,1.46
5126.0,1.56,1.46
5128.0,1.59,1.61
5129.0,1.52,1.56
5131.0,1.49,1.65
5133.0,1.38,1.61
5135.0,1.23,1.62
5137.0,1.27,1.72
5139.0,1.31,1.83
5141.0,1.4,1.77
5143.0,1.55,1.72
5145.0,1.57,1.65
5147.0,1.65,1.71
5149.0,1.56,1.72
5151.0,1.48,1.73
5154.0,1.41,1.69
5156.0,1.26,1.71
5158.0,1.3,1.81
5160.0,1.36,1.79
5162.0,1.43,1.71
5164.0,1.51,1.54
5166.0,1.5,1.49
5168.0,1.47,1.56
5170.0,1.35,1.54
5172.0,1.35,1.53
5173.0,1.26,1.5
5175.0,1.14,1.56
5177.0,1.14,1.59
5179.0,1.28,1.61
5181.0,1.33,1.57
5183.0,1.46,1.55
5185.0,1.51,1.45
5187.0,1.54,1.39
5189.0,1.49,1.39
5191.0,1.45,1.4
5193.0,1.36,1.36
5195.0,1.28,1.3
5198.0,1.31,1.29
5200.0,1.39,1.29
5202.0,1.52,1.31
5204.0,1.63,1.26
5206.0,1.62,1.15
5208.0,1.6,1.27
5210.0,1.61,1.31
5212.0,1.52,1.29
5214.0,1.43,1.23
5215.0,1.3,1.28
5217.0,1.31,1.34
5219.0,1.34,1.37
5221.0,1.37,1.24
5223.0,1.53,1.2
5225.0,1.56,1.19
5227.0,1.61,1.22
5229.0,1.57,1.28
5231.0,1.48,1.35
5233.0,1.42,1.33
5235.0,1.3,1.28
5237.0,1.31,1.4
5240.0,1.34,1.35
5242.0,1.45,1.38
5244.0,1.55,1.42
5246.0,1.57,1.33
5248.0,1.6,1.4
5250.0,1.57,1.45
5252.0,1.5,1.46
5254.0,1.36,1.47
5256.0,1.23,1.33
5258.0,1.24,1.37
5259.0,1.26,1.41
5261.0,1.32,1.33
5263.0,1.47,1.27
5265.0,1.49,1.24
5267.0,1.47,1.32
5269.0,1.44,1.33
5271.0,1.4,1.31
5273.0,1.37,1.32
5275.0,1.25,1.26
5277.0,1.26,1.31
5279.0,1.34,1.35
5282.0,1.45,1.42
5284.0,1.55,1.39
5286.0,1.55,1.22
5288.0,1.64,1.32
5290.0,1.54,1.37
5292.0,1.45,1.26
5294.0,1.37,1.2
5296.0,1.26,1.17
5298.0,1.25,1.22
5300.0,1.29,1.32
5301.0,1.36,1.26
5303.0,1.46,1.31
5305.0,1.46,1.21
5307.0,1.5,1.21
5309.0,1.43,1.2
5311.0,1.36,1.23
5313.0,1.3,1.25
5315.0,1.15,1.24
5317.0,1.18,1.29
5319.0,1.22,1.29
5321.0,1.38,1.28
5323.0,1.47,1.25
5326.0,1.49,1.15
5328.0,1.54,1.2
5330.0,1.53,1.22
5332.0,1.49,1.2
5334.0,1.41,1.25
5336.0,1.29,1.23
5338.0,1.29,1.25
5340.0,1.36,1.32
5342.0,1.44,1.35
5344.0,1.56,1.32
5345.0,1.59,1.28
5347.0,1.63,1.28
5349.0,1.53,1.25
5351.0,1.51,1.27
5353.0,1.47,1.31
5355.0,1.35,1.38
5357.0,1.33,1.35
5359.0,1.37,1.35
5361.0,1.45,1.33
5363.0,1.54,1.29
5365.0,1.58,1.29
5368.0,1.62,1.4
5370.0,1.57,1.46
5372.0,1.5,1.46
5374.0,1.39,1.4
5376.0,1.24,1.39
5378.0,1.24,1.44
5380.0,1.25,1.45
5382.0,1.35,1.39
5384.0,1.45,1.32
5386.0,1.48,1.31
5387.0,1.48,1.33
5389.0,1.42,1.31
5391.0,1.44,1.4
5393.0,1.35,1.36
5395.0,1.28,1.38
5397.0,1.31,1.48
5399.0,1.37,1.68
5401.0,1.46,1.72
5403.0,1.58,1.66
5405.0,1.61,1.59
5407.0,1.62,1.6
5410.0,1.61,1.61
5412.0,1.62,1.58
5414.0,1.52,1.48
5416.0,1.37,1.38
5418.0,1.42,1.46
5420.0,1.43,1.47
5422.0,1.51,1.45
5424.0,1.62,1.46
5426.0,1.65,1.47
5428.0,1.66,1.51
5430.0,1.64,1.59
5431.0,1.58,1.62
5433.0,1.5,1.62
5435.0,1.38,1.6
5437.0,1.43,1.66
5439.0,1.43,1.56
5441.0,1.52,1.46
5443.0,1.66,1.42
5445.0,1.72,1.38
5447.0,1.73,1.42
5449.0,1.75,1.53
5451.0,1.66,1.57
5454.0,1.53,1.56
5456.0,1.41,1.57
5458.0,1.45,1.69
5460.0,1.49,1.72
5462.0,1.58,1.71
5464.0,1.62,1.61
5466.0,1.63,1.59
5468.0,1.63,1.68
5470.0,1.55,1.64
5472.0,1.47,1.65
5473.0,1.39,1.7
5475.0,1.27,1.69
5477.0,1.26,1.67
5479.0,1.3,1.74
5481.0,1.43,1.73
5483.0,1.54,1.66
5485.0,1.55,1.6
5487.0,1.61,1.6
5489.0,1.59,1.65
5491.0,1.53,1.71
5493.0,1.41,1.69
5496.0,1.3,1.64
5498.0,1.27,1.66
5500.0,1.36,1.68
5502.0,1.4,1.67
5504.0,1.54,1.51
5506.0,1.58,1.47
5508.0,1.61,1.54
5510.0,1.57,1.58
5512.0,1.56,1.57
5514.0,1.44,1.52
5516.0,1.31,1.48
5517.0,1.31,1.46
5519.0,1.37,1.47
5521.0,1.44,1.45
5523.0,1.53,1.35
5525.0,1.55,1.38
5527.0,1.58,1.45
5529.0,1.51,1.37
5531.0,1.49,1.38
5533.0,1.4,1.29
5535.0,1.28,1.36
5538.0,1.28,1.4
5540.0,1.31,1.39
5542.0,1.4,1.43
5544.0,1.52,1.4
5546.0,1.54,1.33
5548.0,1.54,1.36
5550.0,1.54,1.35
5552.0,1.46,1.25
5554.0,1.36,1.23
5556.0,1.27,1.21
5558.0,1.3,1.25
5559.0,1.32,1.29
5561.0,1.39,1.24
5563.0,1.48,1.21
5565.0,1.49,1.29
5567.0,1.46,1.29
5569.0,1.42,1.2
5571.0,1.4,1.08
5573.0,1.3,1.0
5575.0,1.18,1.0
5577.0,1.14,0.98
5579.0,1.2,0.93
5582.0,1.31,0.92
5584.0,1.38,1.0
5586.0,1.39,1.01
5588.0,1.44,1.05
5590.0,1.36,0.94
5592.0,1.33,0.72
5594.0,1.26,0.62
5596.0,1.16,0.71
5598.0,1.18,0.57
5600.0,1.18,0.51
5602.0,1.26,0.69
5603.0,1.43,0.89
5605.0,1.47,0.71
5607.0,1.49,0.58
5609.0,1.42,0.55
5611.0,1.33,0.36
5613.0,1.23,0.14
5615.0,1.14,0.31
5617.0,1.13,0.64
5619.0,1.18,0.54
5621.0,1.28,0.2
5624.0,1.39,0.04
5626.0,1.45,0.3
5628.0,1.49,0.32
5630.0,1.44,0.25
5632.0,1.4,0.12
5634.0,1.34,0.0
5636.0,1.25,0.0
5638.0,1.2,0.02
5640.0,1.23,0.47
5642.0,1.41,0.34
5644.0,1.53,0.12
5646.0,1.54,0.0
5647.0,1.52,0.0
5649.0,1.47,0.0
5651.0,1.39,0.0
5653.0,1.31,0.0
5655.0,1.19,0.0
5657.0,1.23,0.0
5659.0,1.3,0.0
5661.0,1.46,0.0
5663.0,1.5,0.0
5666.0,1.49,0.0
5668.0,1.54,0.17
5670.0,1.56,0.28
5672.0,1.44,0.13
5674.0,1.36,0.0
5676.0,1.25,0.18
5678.0,1.3,0.75
5680.0,1.36,0.91
5682.0,1.41,0.65
5684.0,1.58,0.52
5686.0,1.63,0.59
5688.0,1.66,0.35
5689.0,1.61,0.46
5691.0,1.59,0.92
5693.0,1.52,0.81
5695.0,1.41,0.79
5697.0,1.39,1.08
5699.0,1.47,1.04
5701.0,1.53,1.49
5703.0,1.63,1.42
5705.0,1.62,1.42
5707.0,1.65,1.48
5710.0,1.67,1.56
5712.0,1.61,1.66
5714.0,1.53,1.88
5716.0,1.45,2.16
5718.0,1.44,1.86
5720.0,1.46,2.21
5722.0,1.51,2.05
5724.0,1.62,2.43
5726.0,1.65,2.56
5728.0,1.66,2.52
5730.0,1.62,2.61
5732.0,1.54,2.77
5733.0,1.45,2.83
5735.0,1.28,2.79
5737.0,1.27,2.8
5739.0,1.31,3.12
5741.0,1.35,3.07
5743.0,1.49,3.07
5745.0,1.51,3.19
5747.0,1.55,2.99
5749.0,1.51,2.95
5752.0,1.47,3.15
5754.0,1.36,3.14
5756.0,1.28,3.3
5758.0,1.33,3.3
5760.0,1.37,3.3
5762.0,1.49,3.3
5764.0,1.55,3.2
5766.0,1.61,3.28
5768.0,1.64,3.3
5770.0,1.62,3.28
5772.0,1.55,3.0
5774.0,1.46,3.16
5776.0,1.42,3.3
5777.0,1.5,3.3
5779.0,1.55,3.06
5781.0,1.73,3.23
5783.0,1.84,3.3
5785.0,1.86,3.13
5787.0,1.83,3.04
5789.0,1.74,2.84
5791.0,1.64,2.57
5794.0,1.55,2.16
5796.0,1.4,1.98
5798.0,1.41,1.99
5800.0,1.4,1.48
5802.0,1.49,1.42
5804.0,1.58,1.06
5806.0,1.6,1.08
5808.0,1.53,1.08
5810.0,1.44,0.96
5812.0,1.38,0.9
5814.0,1.3,1.0
5816.0,1.18,1.07
5818.0,1.13,1.13
5819.0,1.15,1.22
5821.0,1.22,1.21
5823.0,1.3,1.21
5825.0,1.33,1.34
5827.0,1.34,1.33
5829.0,1.27,0.96
5831.0,1.19,1.12
5833.0,1.11,1.44
5835.0,0.99,1.3
5838.0,1.0,1.35
5840.0,1.06,1.3
5842.0,1.17,1.37
5844.0,1.26,1.35
5846.0,1.3,1.37
5848.0,1.33,1.46
5850.0,1.24,1.46
5852.0,1.2,1.53
5854.0,1.06,1.65
5856.0,0.97,1.49
5858.0,0.99,1.3
5860.0,1.04,1.74
5862.0,1.13,1.82
5863.0,1.19,1.63
5865.0,1.19,1.57
5867.0,1.24,1.6
5869.0,1.12,1.68
5871.0,1.07,1.7
5873.0,1.01,1.71
5875.0,0.97,1.65
5877.0,0.95,1.71
5880.0,1.04,1.84
5882.0,1.09,1.87
5884.0,1.27,1.86
5886.0,1.35,1.95
5888.0,1.38,2.11
5890.0,1.39,2.12
5892.0,1.37,2.12
5894.0,1.31,2.06
5896.0,1.23,2.13
5898.0,1.22,2.23
5900.0,1.31,2.14
5902.0,1.38,2.25
5904.0,1.52,2.25
5905.0,1.55,2.21
5907.0,1.6,2.31
5909.0,1.57,2.26
5911.0,1.54,2.29
5913.0,1.42,2.28
5915.0,1.34,2.25
5917.0,1.34,2.26
5919.0,1.46,2.28
5922.0,1.53,2.25
5924.0,1.64,2.2
5926.0,1.62,2.17
5928.0,1.61,2.23
5930.0,1.58,2.14
5932.0,1.55,1.98
5934.0,1.44,1.93
5936.0,1.32,1.95
5938.0,1.3,1.92
5940.0,1.34,1.94
5942.0,1.43,1.91
5944.0,1.53,1.79
5946.0,1.56,1.73
5948.0,1.58,1.72
5949.0,1.59,1.78
5951.0,1.55,1.92
5953.0,1.49,1.74
5955.0,1.41,1.61
5957.0,1.45,1.75
5959.0,1.54,1.69
5961.0,1.71,1.57
5963.0,1.83,1.59
5966.0,1.85,1.54
5968.0,1.8,1.47
5970.0,1.74,1.4
5972.0,1.69,1.48
5974.0,1.57,1.35
5976.0,1.46,1.28
5978.0,1.49,1.32
5980.0,1.53,1.25
5982.0,1.7,1.29
5984.0,1.8,1.35
5986.0,1.78,1.25
5988.0,1.79,1.28
5990.0,1.72,1.25
5992.0,1.6,1.4
5993.0,1.52,1.5
5995.0,1.45,1.46
5997.0,1.49,1.54
5999.0,1.55,1.5
6001.0,1.67,1.44
6003.0,1.73,1.32
6005.0,1.75,1.31
6008.0,1.76,1.28
6010.0,1.69,1.31
6012.0,1.59,1.26
6014.0,1.44,1.33
6016.0,1.36,1.35
6018.0,1.37,1.45
6020.0,1.41,1.48
6022.0,1.51,1.43
6024.0,1.61,1.3
6026.0,1.66,1.32
6028.0,1.63,1.37
6030.0,1.57,1.44
6032.0,1.47,1.43
6034.0,1.34,1.39
6035.0,1.28,1.33
6037.0,1.3,1.42
6039.0,1.42,1.35
6041.0,1.52,1.26
6043.0,1.59,1.28
6045.0,1.62,1.32
6047.0,1.65,1.31
6050.0,1.57,1.32
6052.0,1.52,1.43
6054.0,1.48,1.34
6056.0,1.44,1.44
6058.0,1.45,1.52
6060.0,1.5,1.45
6062.0,1.56,1.39
6064.0,1.63,1.36
6066.0,1.66,1.37
6068.0,1.65,1.42
6070.0,1.6,1.51
6072.0,1.5,1.46
6074.0,1.44,1.6
6076.0,1.36,1.64
6078.0,1.31,1.65
6079.0,1.43,1.72
6081.0,1.47,1.75
6083.0,1.54,1.67
6085.0,1.58,1.69
6087.0,1.6,1.72
6089.0,1.52,1.68
6091.0,1.5,1.65
6094.0,1.43,1.63
6096.0,1.38,1.66
6098.0,1.33,1.68
6100.0,1.39,1.64
6102.0,1.47,1.55
6104.0,1.58,1.56
6106.0,1.64,1.55
6108.0,1.66,1.54
6110.0,1.65,1.61
6112.0,1.57,1.66
6114.0,1.45,1.77
6116.0,1.41,1.8
6118.0,1.4,1.82
6120.0,1.49,1.84
6122.0,1.6,1.8
6123.0,1.73,1.87
6125.0,1.74,1.78
6127.0,1.76,1.78
6129.0,1.7,1.84
6131.0,1.64,1.78
6133.0,1.55,1.75
6136.0,1.49,1.75
6138.0,1.54,1.82
6140.0,1.56,1.81
6142.0,1.64,1.77
6144.0,1.72,1.72
6146.0,1.74,1.63
6148.0,1.73,1.64
6150.0,1.68,1.57
6152.0,1.64,1.54
6154.0,1.53,1.54
6156.0,1.42,1.53
6158.0,1.43,1.52
6160.0,1.49,1.56
6162.0,1.53,1.57
6164.0,1.64,1.53
6165.0,1.65,1.43
6167.0,1.61,1.38
6169.0,1.54,1.3
6171.0,1.57,1.27
6173.0,1.49,1.21
6175.0,1.37,1.25
6178.0,1.31,1.29
6180.0,1.35,1.32
6182.0,1.42,1.18
6184.0,1.51,1.2
6186.0,1.56,1.16
6188.0,1.59,1.18
6190.0,1.56,1.25
6192.0,1.46,1.25
6194.0,1.38,1.23
6196.0,1.29,1.17
6198.0,1.33,1.18
6200.0,1.42,1.15
6202.0,1.52,1.1
6204.0,1.59,1.05
6206.0,1.6,1.07
6208.0,1.54,1.12
6209.0,1.52,1.3
6211.0,1.49,1.39
6213.0,1.37,1.29
6215.0,1.25,1.35
6217.0,1.25,1.43
6219.0,1.34,1.47
6222.0,1.4,1.37
6224.0,1.45,1.36
6226.0,1.52,1.45
6228.0,1.5,1.43
6230.0,1.44,1.42
6232.0,1.38,1.45
6234.0,1.28,1.36
6236.0,1.25,1.33
6238.0,1.24,1.27
6240.0,1.33,1.27
6242.0,1.38,1.27
6244.0,1.47,1.23
6246.0,1.49,1.25
6248.0,1.53,1.38
6250.0,1.52,1.44
6252.0,1.46,1.44
6253.0,1.35,1.45
6255.0,1.26,1.4
6257.0,1.22,1.44
6259.0,1.3,1.46
6261.0,1.45,1.5
6264.0,1.52,1.4
6266.0,1.58,1.37
6268.0,1.56,1.35
6270.0,1.43,1.34
6272.0,1.39,1.43
6274.0,1.26,1.46
6276.0,1.21,1.45
6278.0,1.18,1.42
6280.0,1.29,1.41
6282.0,1.38,1.46
6284.0,1.45,1.41
6286.0,1.46,1.38
6288.0,1.43,1.37
6290.0,1.4,1.46
6292.0,1.32,1.46
6294.0,1.25,1.34
6296.0,1.19,1.3
6297.0,1.18,1.29
6299.0,1.27,1.19
6301.0,1.39,1.17
6303.0,1.45,1.05
6306.0,1.49,1.1
6308.0,1.52,1.11
6310.0,1.47,1.11
6312.0,1.42,1.16
6314.0,1.3,1.17
6316.0,1.2,1.25
6318.0,1.21,1.3
6320.0,1.26,1.29
6322.0,1.36,1.27
6324.0,1.44,1.19
6326.0,1.46,1.29
6328.0,1.43,1.4
6330.0,1.39,1.46
6332.0,1.32,1.42
6334.0,1.25,1.39
6336.0,1.29,1.53
6338.0,1.22,1.54
6340.0,1.32,1.56
6341.0,1.43,1.44
6343.0,1.51,1.43
6345.0,1.58,1.41
6347.0,1.59,1.37
6350.0,1.52,1.32
6352.0,1.46,1.26
6354.0,1.34,1.13
6356.0,1.29,1.14
6358.0,1.29,1.2
6360.0,1.33,1.21
6362.0,1.41,1.32
6364.0,1.51,1.23
6366.0,1.55,1.09
6368.0,1.52,1.07
6370.0,1.44,1.08
6372.0,1.35,1.08
6374.0,1.25,1.08
6376.0,1.15,1.02
6378.0,1.13,1.01
6380.0,1.23,1.09
6382.0,1.32,1.09
6384.0,1.4,1.02
6385.0,1.46,1.04
6387.0,1.47,1.15
6389.0,1.42,1.1
6392.0,1.42,1.14
6394.0,1.28,1.16
6396.0,1.23,1.19
6398.0,1.21,1.28
6400.0,1.37,1.19
6402.0,1.51,1.18
6404.0,1.65,1.14
6406.0,1.72,1.1
6408.0,1.72,1.02
6410.0,1.66,1.17
6412.0,1.65,1.27
6414.0,1.48,1.25
6416.0,1.43,1.17
6418.0,1.43,1.18
6420.0,1.52,1.27
6422.0,1.63,1.23
6424.0,1.7,1.19
6426.0,1.72,1.26
6428.0,1.7,1.44
6429.0,1.64,1.42
6431.0,1.61,1.35
6434.0,1.45,1.42
6436.0,1.39,1.41
6438.0,1.38,1.47
6440.0,1.43,1.51
6442.0,1.51,1.54
6444.0,1.57,1.54
6446.0,1.6,1.55
6448.0,1.6,1.71
6450.0,1.58,1.76
6452.0,1.5,1.72
6454.0,1.36,1.68
6456.0,1.3,1.71
6458.0,1.36,1.79
6460.0,1.42,1.71
6462.0,1.59,1.78
6464.0,1.67,1.83
6466.0,1.73,1.85
6468.0,1.71,1.9
6470.0,1.69,1.94
6471.0,1.69,1.93
6473.0,1.59,1.97
6475.0,1.53,2.0
6478.0,1.55,2.07
6480.0,1.63,2.01
6482.0,1.69,1.85
6484.0,1.77,1.84
6486.0,1.81,1.77
6488.0,1.75,1.7
6490.0,1.72,1.82
6492.0,1.63,1.78
6494.0,1.45,1.62
6496.0,1.37,1.58
6498.0,1.42,1.85
6500.0,1.44,1.71
6502.0,1.53,1.5
6504.0,1.6,1.77
6506.0,1.65,1.81
6508.0,1.64,1.6
6510.0,1.61,1.4
6512.0,1.53,1.27
6514.0,1.43,1.27
6515.0,1.4,1.24
6517.0,1.39,1.35
6520.0,1.45,1.46
6522.0,1.51,1.47
6524.0,1.59,1.31
6526.0,1.62,1.34
6528.0,1.61,1.45
6530.0,1.54,1.54
6532.0,1.41,1.51
6534.0,1.34,1.56
6536.0,1.3,1.78
6538.0,1.27,1.8
6540.0,1.31,1.78
6542.0,1.4,1.67
6544.0,1.47,1.55
6546.0,1.51,1.54
6548.0,1.53,1.65
6550.0,1.46,1.52
6552.0,1.44,1.5
6554.0,1.32,1.53
6556.0,1.24,1.65
6557.0,1.18,1.61
6559.0,1.29,1.73
6562.0,1.39,1.69
6564.0,1.48,1.64
6566.0,1.51,1.62
6568.0,1.48,1.59
6570.0,1.48,1.52
6572.0,1.48,1.56
6574.0,1.37,1.45
6576.0,1.32,1.31
6578.0,1.33,1.21
6580.0,1.38,1.24
6582.0,1.47,1.3
6584.0,1.58,1.25
6586.0,1.66,1.2
6588.0,1.6,1.09
6590.0,1.46,1.05
6592.0,1.45,1.03
6594.0,1.33,0.99
6596.0,1.28,0.95
6598.0,1.3,0.92
6600.0,1.37,0.88
6601.0,1.46,0.92
6603.0,1.54,0.84
6606.0,1.56,0.75
6608.0,1.57,0.81
6610.0,1.5,0.8
6612.0,1.5,0.79
6614.0,1.31,0.87
6616.0,1.2,0.81
6618.0,1.14,0.73
6620.0,1.23,0.56
6622.0,1.33,0.45
6624.0,1.46,0.36
6626.0,1.54,0.3
6628.0,1.57,0.32
6630.0,1.5,0.26
6632.0,1.52,0.34
6634.0,1.42,0.33
6636.0,1.4,0.23
6638.0,1.41,0.3
6640.0,1.47,0.4
6642.0,1.55,0.48
6643.0,1.63,0.39
6645.0,1.67,0.44
6648.0,1.61,0.49
6650.0,1.52,0.46
6652.0,1.53,0.58
6654.0,1.4,0.59
6656.0,1.35,0.58
6658.0,1.35,0.7
6660.0,1.4,0.79
6662.0,1.48,0.79
6664.0,1.52,0.74
6666.0,1.56,0.78
6668.0,1.54,0.86
6670.0,1.43,1.08
6672.0,1.38,1.45
6674.0,1.26,1.41
6676.0,1.16,1.42
6678.0,1.18,1.48
6680.0,1.29,1.47
6682.0,1.45,1.53
6684.0,1.55,1.54
6686.0,1.63,1.61
6687.0,1.63,1.73
6690.0,1.61,1.84
6692.0,1.51,1.88
6694.0,1.39,1.81
6696.0,1.33,1.81
6698.0,1.35,1.91
6700.0,1.38,1.91
6702.0,1.47,1.84
6704.0,1.53,1.68
6706.0,1.57,1.77
6708.0,1.57,1.86
6710.0,1.55,1.95
6712.0,1.44,1.98
6714.0,1.31,1.92
6716.0,1.33,1.98
6718.0,1.33,2.02
6720.0,1.39,1.99
6722.0,1.5,1.99
6724.0,1.6,1.88
6726.0,1.63,1.84
6728.0,1.61,1.78
6730.0,1.57,1.79
6731.0,1.44,1.79
6734.0,1.33,1.77
6736.0,1.27,1.79
6738.0,1.27,1.81
6740.0,1.32,1.87
6742.0,1.45,1.87
6744.0,1.52,1.71
6746.0,1.55,1.72
6748.0,1.58,1.79
6750.0,1.52,1.73
6752.0,1.41,1.69
6754.0,1.3,1.67
6756.0,1.27,1.69
6758.0,1.26,1.72
6760.0,1.39,1.75
6762.0,1.48,1.72
6764.0,1.51,1.67
6766.0,1.54,1.67
6768.0,1.53,1.77
6770.0,1.49,1.75
6772.0,1.44,1.67
6773.0,1.33,1.64
6776.0,1.28,1.67
6778.0,1.22,1.77
6780.0,1.33,1.79
6782.0,1.45,1.75
6784.0,1.53,1.63
6786.0,1.57,1.66
6788.0,1.57,1.74
6790.0,1.49,1.8
6792.0,1.44,1.82
6794.0,1.29,1.69
6796.0,1.27,1.68
6798.0,1.29,1.74
6800.0,1.38,1.7
6802.0,1.46,1.62
6804.0,1.52,1.58
6806.0,1.55,1.65
6808.0,1.52,1.72
6810.0,1.47,1.75
6812.0,1.41,1.75
6814.0,1.29,1.66
6816.0,1.25,1.69
6818.0,1.25,1.66
6820.0,1.33,1.6
6822.0,1.47,1.63
6824.0,1.54,1.61
6826.0,1.59,1.63
6828.0,1.59,1.75
6830.0,1.48,1.68
6832.0,1.46,1.73
6834.0,1.35,1.7
6836.0,1.32,1.7
6838.0,1.32,1.71
6840.0,1.43,1.71
6842.0,1.54,1.66
6844.0,1.59,1.6
6846.0,1.64,1.59
6848.0,1.62,1.65
6850.0,1.58,1.68
6852.0,1.5,1.65
6854.0,1.37,1.55
6856.0,1.32,1.6
6858.0,1.35,1.56
6861.0,1.45,1.58
6862.0,1.54,1.64
6864.0,1.55,1.49
6866.0,1.57,1.55
6868.0,1.49,1.47
6870.0,1.43,1.47
6872.0,1.4,1.5
6874.0,1.28,1.49
6876.0,1.24,1.55
6878.0,1.26,1.58
6880.0,1.3,1.59
6882.0,1.45,1.61
6884.0,1.5,1.55
6886.0,1.55,1.55
6888.0,1.52,1.66
6890.0,1.48,1.72
6892.0,1.43,1.75
6894.0,1.31,1.72
6896.0,1.25,1.88
6898.0,1.28,2.0
6900.0,1.32,1.99
6903.0,1.44,2.02
6905.0,1.49,1.85
6906.0,1.51,1.85
6908.0,1.48,1.91
6910.0,1.47,1.92
6912.0,1.44,1.91
6914.0,1.3,1.84
6916.0,1.27,1.85
6918.0,1.31,1.93
6920.0,1.37,1.85
6922.0,1.45,1.8
6924.0,1.47,1.67
6926.0,1.51,1.58
6928.0,1.51,1.64
6930.0,1.46,1.61
6932.0,1.36,1.58
6934.0,1.24,1.57
6936.0,1.29,1.67
6938.0,1.28,1.65
6940.0,1.34,1.6
6942.0,1.45,1.58
6944.0,1.53,1.54
6947.0,1.59,1.53
6948.0,1.59,1.52
6950.0,1.52,1.47
6952.0,1.46,1.42
6954.0,1.3,1.34
6956.0,1.26,1.35
6958.0,1.26,1.36
6960.0,1.34,1.32
6962.0,1.46,1.32
6964.0,1.49,1.27
6966.0,1.52,1.27
6968.0,1.45,1.28
6970.0,1.35,1.35
6972.0,1.33,1.37
6974.0,1.23,1.29
6976.0,1.29,1.29
6978.0,1.3,1.31
6980.0,1.44,1.31
6982.0,1.57,1.29
6984.0,1.65,1.21
6986.0,1.69,1.36
6989.0,1.65,1.46
6991.0,1.58,1.45
6992.0,1.49,1.44
6994.0,1.38,1.45
6996.0,1.35,1.51
6998.0,1.35,1.65
7000.0,1.47,1.71
7002.0,1.6,1.74
7004.0,1.58,1.57
7006.0,1.58,1.6
7008.0,1.6,1.75
7010.0,1.53,1.68
7012.0,1.48,1.6
7014.0,1.31,1.5
7016.0,1.31,1.58
7018.0,1.35,1.58
7020.0,1.47,1.55
7022.0,1.62,1.49
7024.0,1.63,1.42
7026.0,1.65,1.41
7028.0,1.66,1.44
7031.0,1.58,1.45
7033.0,1.47,1.42
7035.0,1.34,1.42
7036.0,1.32,1.45
7038.0,1.29,1.4
7040.0,1.4,1.43
7042.0,1.54,1.47
7044.0,1.56,1.34
7046.0,1.59,1.29
7048.0,1.55,1.29
7050.0,1.52,1.38
7052.0,1.42,1.45
7054.0,1.28,1.38
7056.0,1.23,1.34
7058.0,1.26,1.34
7060.0,1.36,1.3
7062.0,1.5,1.31
7064.0,1.56,1.27
7066.0,1.6,1.22
7068.0,1.58,1.25
7070.0,1.52,1.18
7072.0,1.5,1.16
7075.0,1.43,1.2
7077.0,1.39,1.25
7079.0,1.4,1.22
7080.0,1.5,1.21
7082.0,1.62,1.26
7084.0,1.63,1.24
7086.0,1.64,1.31
7088.0,1.59,1.31
7090.0,1.49,1.4
7092.0,1.44,1.5
7094.0,1.28,1.37
7096.0,1.27,1.34
7098.0,1.28,1.4
7100.0,1.39,1.35
7102.0,1.49,1.31
7104.0,1.53,1.24
7106.0,1.56,1.27
7108.0,1.55,1.35
7110.0,1.5,1.41
7112.0,1.42,1.37
7114.0,1.28,1.37
7117.0,1.29,1.4
7119.0,1.26,1.39
7121.0,1.35,1.43
7123.0,1.55,1.42
7124.0,1.62,1.44
7126.0,1.66,1.49
7128.0,1.7,1.47
7130.0,1.62,1.39
7132.0,1.53,1.38
7134.0,1.39,1.38
7136.0,1.4,1.4
7138.0,1.4,1.39
7140.0,1.49,1.36
7142.0,1.57,1.41
7144.0,1.64,1.33
7146.0,1.68,1.31
7148.0,1.65,1.32
7150.0,1.6,1.39
7152.0,1.55,1.35
7154.0,1.41,1.26
7156.0,1.39,1.24
7159.0,1.39,1.34
7161.0,1.5,1.39
7163.0,1.59,1.36
7165.0,1.64,1.26
7167.0,1.71,1.33
7168.0,1.64,1.28
7170.0,1.57,1.27
7172.0,1.5,1.31
7174.0,1.35,1.27
7176.0,1.33,1.32
7178.0,1.35,1.31
7180.0,1.47,1.34
7182.0,1.54,1.35
7184.0,1.56,1.31
7186.0,1.6,1.35
7188.0,1.53,1.3
7190.0,1.49,1.38
7192.0,1.43,1.37
7194.0,1.27,1.34
7196.0,1.24,1.38
7198.0,1.25,1.47
7200.0,1.32,1.41
7203.0,1.47,1.39
7205.0,1.52,1.26
7207.0,1.57,1.29
7209.0,1.55,1.32
7211.0,1.54,1.42
7212.0,1.51,1.49
7214.0,1.34,1.35
7216.0,1.31,1.32
7218.0,1.3,1.38
7220.0,1.37,1.4
7222.0,1.45,1.5
7224.0,1.52,1.47
7226.0,1.54,1.47
7228.0,1.5,1.47
7230.0,1.48,1.52
7232.0,1.39,1.51
7234.0,1.26,1.48
7236.0,1.26,1.51
7238.0,1.27,1.57
7240.0,1.37,1.55
7242.0,1.49,1.57
7245.0,1.54,1.47
7247.0,1.61,1.51
7249.0,1.59,1.53
7251.0,1.53,1.53
7253.0,1.5,1.48
7255.0,1.35,1.46
7256.0,1.35,1.57
7258.0,1.31,1.6
7260.0,1.39,1.64
7262.0,1.51,1.75
7264.0,1.54,1.7
7266.0,1.56,1.71
7268.0,1.5,1.67
7270.0,1.43,1.62
7272.0,1.34,1.67
7274.0,1.22,1.69
7276.0,1.19,1.72
7278.0,1.19,1.78
7280.0,1.29,1.69
7282.0,1.43,1.72
7284.0,1.46,1.61
7287.0,1.5,1.57
7289.0,1.45,1.53
7291.0,1.39,1.52
7293.0,1.35,1.5
7295.0,1.23,1.45
7297.0,1.26,1.55
7299.0,1.28,1.62
7300.0,1.39,1.67
7302.0,1.47,1.7
7304.0,1.51,1.6
7306.0,1.55,1.6
7308.0,1.52,1.61
7310.0,1.48,1.61
7312.0,1.4,1.61
7314.0,1.21,1.45
7316.0,1.22,1.52
7318.0,1.24,1.61
7320.0,1.38,1.59
7322.0,1.45,1.49
7324.0,1.48,1.42
7326.0,1.46,1.45
7328.0,1.41,1.45
7331.0,1.33,1.45
7333.0,1.29,1.5
7335.0,1.16,1.51
7337.0,1.16,1.5
7339.0,1.18,1.51
7341.0,1.32,1.48
7342.0,1.43,1.5
7344.0,1.47,1.4
7346.0,1.5,1.45
7348.0,1.46,1.48
7350.0,1.43,1.58
7352.0,1.36,1.6
7354.0,1.2,1.48
7356.0,1.23,1.46
7358.0,1.28,1.49
7360.0,1.3,1.42
7362.0,1.39,1.37
7364.0,1.47,1.34
7366.0,1.54,1.4
7368.0,1.44,1.32
7370.0,1.39,1.42
7373.0,1.37,1.45
7375.0,1.21,1.38
7377.0,1.18,1.44
7379.0,1.22,1.59
7381.0,1.35,1.54
7383.0,1.47,1.47
7385.0,1.5,1.36
7386.0,1.58,1.49
7388.0,1.55,1.57
7390.0,1.47,1.6
7392.0,1.44,1.57
7394.0,1.27,1.5
7396.0,1.23,1.57
7398.0,1.26,1.67
7400.0,1.32,1.61
7402.0,1.44,1.66
7404.0,1.46,1.57
7406.0,1.5,1.61
7408.0,1.48,1.63
7410.0,1.55,1.71
7412.0,1.46,1.63
7415.0,1.3,1.56
7417.0,1.3,1.59
7419.0,1.3,1.58
7421.0,1.42,1.52
7423.0,1.53,1.54
7425.0,1.55,1.39
7427.0,1.59,1.41
7429.0,1.59,1.46
7430.0,1.56,1.49
7432.0,1.45,1.48
7434.0,1.33,1.41
7436.0,1.34,1.48
7438.0,1.36,1.56
7440.0,1.43,1.55
7442.0,1.58,1.58
7444.0,1.59,1.46
7446.0,1.62,1.51
7448.0,1.6,1.58
7450.0,1.55,1.67
7452.0,1.45,1.62
7454.0,1.3,1.52
7456.0,1.34,1.57
7459.0,1.37,1.56
7461.0,1.45,1.5
7463.0,1.64,1.61
7465.0,1.66,1.51
7467.0,1.69,1.52
7469.0,1.65,1.52
7471.0,1.51,1.53
7472.0,1.41,1.53
7474.0,1.32,1.47
7476.0,1.31,1.45
7478.0,1.34,1.51
7480.0,1.49,1.56
7482.0,1.59,1.58
7484.0,1.62,1.43
7486.0,1.6,1.38
7488.0,1.62,1.42
7490.0,1.55,1.38
7492.0,1.43,1.44
7494.0,1.3,1.42
7496.0,1.34,1.45
7498.0,1.32,1.49
7501.0,1.46,1.52
7503.0,1.6,1.5
7505.0,1.64,1.36
7507.0,1.7,1.39
7509.0,1.66,1.45
7511.0,1.6,1.5
7513.0,1.48,1.48
7515.0,1.32,1.45
7517.0,1.35,1.53
7518.0,1.33,1.49
7520.0,1.44,1.47
7522.0,1.58,1.55
7524.0,1.6,1.45
7526.0,1.64,1.47
7528.0,1.65,1.51
7530.0,1.58,1.44
7532.0,1.51,1.42
7534.0,1.35,1.4
7536.0,1.39,1.49
7538.0,1.42,1.52
7540.0,1.47,1.53
7543.0,1.54,1.46
7545.0,1.58,1.34
7547.0,1.6,1.36
7549.0,1.58,1.47
7551.0,1.51,1.52
7553.0,1.43,1.44
7555.0,1.27,1.38
7557.0,1.3,1.41
7559.0,1.32,1.4
7560.0,1.42,1.42
7562.0,1.5,1.4
7564.0,1.55,1.29
7566.0,1.54,1.4
7568.0,1.48,1.46
7570.0,1.44,1.48
7572.0,1.43,1.54
7574.0,1.29,1.49
7576.0,1.3,1.46
7578.0,1.34,1.42
7580.0,1.44,1.35
7582.0,1.54,1.29
7584.0,1.55,1.23
7587.0,1.59,1.33
7589.0,1.57,1.38
7591.0,1.56,1.45
7593.0,1.43,1.46
7595.0,1.29,1.38
7597.0,1.27,1.39
7599.0,1.33,1.35
7601.0,1.39,1.32
7603.0,1.53,1.3
7605.0,1.51,1.16
7606.0,1.53,1.14
7608.0,1.51,1.11
7610.0,1.45,1.12
7612.0,1.44,1.12
7614.0,1.29,0.99
7616.0,1.36,0.96
7618.0,1.36,0.92
7620.0,1.4,0.93
7622.0,1.52,0.86
7624.0,1.56,0.72
7626.0,1.58,0.76
7629.0,1.47,0.84
7631.0,1.44,1.01
7633.0,1.35,0.95
7635.0,1.25,0.78
7637.0,1.26,0.89
7639.0,1.29,1.13
7641.0,1.36,1.07
7643.0,1.47,0.96
7645.0,1.47,0.78
7647.0,1.5,0.79
7648.0,1.44,0.64
7650.0,1.36,0.87
7652.0,1.27,0.86
7654.0,1.15,0.67
7656.0,1.16,0.73
7658.0,1.15,0.6
7660.0,1.2,0.47
7662.0,1.33,0.46
7664.0,1.37,0.35
7666.0,1.41,0.9
7668.0,1.36,1.17
7671.0,1.31,1.16
7673.0,1.23,1.09
7675.0,1.11,0.84
7677.0,1.14,0.7
7679.0,1.19,0.62
7681.0,1.32,0.65
7683.0,1.45,0.63
7685.0,1.47,0.26
7687.0,1.55,0.24
7689.0,1.5,0.34
7691.0,1.42,0.42
7692.0,1.36,0.35
7694.0,1.24,0.25
7696.0,1.29,0.62
7698.0,1.28,0.84
7700.0,1.43,0.66
7702.0,1.5,0.62
7704.0,1.51,0.64
7706.0,1.57,1.13
7708.0,1.58,1.42
7710.0,1.48,1.75
7712.0,1.45,1.99
7715.0,1.32,1.8
7717.0,1.33,1.9
7719.0,1.35,1.83
7721.0,1.42,1.72
7723.0,1.5,2.08
7725.0,1.54,1.89
7727.0,1.58,1.75
7729.0,1.58,1.81
7731.0,1.52,1.97
7733.0,1.5,2.15
7735.0,1.35,1.98
7736.0,1.37,1.99
7738.0,1.41,2.13
7740.0,1.5,2.26
7742.0,1.57,2.25
7744.0,1.6,2.15
7746.0,1.69,2.17
7748.0,1.65,2.05
7750.0,1.56,2.09
7752.0,1.49,2.17
7754.0,1.37,1.98
7757.0,1.37,1.99
7759.0,1.45,2.17
7761.0,1.54,2.16
7763.0,1.6,2.04
7765.0,1.63,2.08
7767.0,1.7,1.87
7769.0,1.63,1.75
7771.0,1.58,1.95
7773.0,1.5,1.97
7775.0,1.38,1.94
7777.0,1.37,1.82
7779.0,1.42,1.74
7780.0,1.43,1.5
7782.0,1.55,1.48
7784.0,1.54,1.61
7786.0,1.62,1.59
7788.0,1.56,1.46
7790.0,1.5,1.37
7792.0,1.46,1.32
7794.0,1.33,1.32
7796.0,1.29,1.35
7799.0,1.35,1.4
7801.0,1.39,1.36
7803.0,1.51,1.33
7805.0,1.54,1.24
7807.0,1.58,1.23
7809.0,1.55,1.23
7811.0,1.51,1.39
7813.0,1.48,1.4
7815.0,1.35,1.15
7817.0,1.37,1.22
7819.0,1.34,1.18
7821.0,1.41,1.11
7822.0,1.56,0.91
7824.0,1.61,0.71
7826.0,1.65,0.9
7828.0,1.63,0.92
7830.0,1.58,0.8
7832.0,1.52,1.0
7834.0,1.37,0.92
7836.0,1.31,0.89
7838.0,1.35,0.96
7840.0,1.45,0.95
7843.0,1.58,0.89
7845.0,1.58,0.89
7847.0,1.62,0.93
7849.0,1.57,0.83
7851.0,1.48,0.75
7853.0,1.46,0.92
7855.0,1.31,0.94
7857.0,1.31,0.74
7859.0,1.38,0.79
7861.0,1.49,0.77
7863.0,1.62,0.75
7865.0,1.66,0.59
7866.0,1.72,0.49
7868.0,1.61,0.43
7870.0,1.55,0.35
7872.0,1.5,0.26
7874.0,1.4,0.13
7876.0,1.43,0.21
7878.0,1.45,0.23
7880.0,1.57,0.25
7882.0,1.59,0.31
7885.0,1.56,0.25
7887.0,1.55,0.35
7889.0,1.48,0.49
7891.0,1.44,0.64
7893.0,1.35,0.66
7895.0,1.15,0.75
7897.0,1.19,0.98
7899.0,1.24,1.16
7901.0,1.36,1.21
7903.0,1.5,1.24
7905.0,1.49,1.24
7907.0,1.5,1.35
7909.0,1.51,1.31
7910.0,1.45,1.27
7912.0,1.41,1.34
7914.0,1.25,1.33
7916.0,1.29,1.56
7918.0,1.29,1.54
7920.0,1.38,1.62
7922.0,1.5,1.8
7924.0,1.5,1.76
7927.0,1.51,1.81
7929.0,1.53,1.93
7931.0,1.52,1.93
7933.0,1.44,2.1
7935.0,1.3,2.41
7937.0,1.35,2.25
7939.0,1.33,2.13
7941.0,1.37,2.16
7943.0,1.5,2.26
7945.0,1.48,2.03
7947.0,1.49,2.03
7949.0,1.5,2.06
7951.0,1.43,1.99
7953.0,1.38,1.97
7954.0,1.25,1.91
7956.0,1.27,2.03
7958.0,1.35,2.08
7960.0,1.44,2.06
7962.0,1.54,2.08
7964.0,1.53,1.92
7966.0,1.55,1.88
7968.0,1.56,1.93
7971.0,1.49,1.91
7973.0,1.42,1.95
7975.0,1.32,1.98
7977.0,1.32,2.05
7979.0,1.37,1.98
7981.0,1.47,1.97
7983.0,1.6,1.96
7985.0,1.61,1.93
7987.0,1.59,1.98
7989.0,1.53,2.04
7991.0,1.45,2.05
7993.0,1.39,2.05
7995.0,1.23,2.03
7997.0,1.2,2.1
7998.0,1.27,2.19
8000.0,1.38,2.11
8002.0,1.51,2.1
8004.0,1.51,2.06
8006.0,1.55,2.15
8008.0,1.46,2.31
8010.0,1.43,2.3
8013.0,1.34,2.25
8015.0,1.18,2.18
8017.0,1.16,2.22
8019.0,1.25,2.26
8021.0,1.38,2.36
8023.0,1.5,2.39
8025.0,1.55,2.33
8027.0,1.59,2.34
8029.0,1.51,2.35
8031.0,1.46,2.38
8033.0,1.42,2.27
8035.0,1.3,2.14
8037.0,1.29,2.22
8039.0,1.35,2.22
8040.0,1.37,2.15
8042.0,1.43,2.16
8044.0,1.46,2.19
8046.0,1.49,2.22
8048.0,1.47,2.25
8050.0,1.4,2.1
8052.0,1.31,2.02
8055.0,1.23,1.98
8057.0,1.23,2.0
8059.0,1.24,2.02
8061.0,1.41,2.1
8063.0,1.47,1.95
8065.0,1.46,1.82
8067.0,1.48,1.8
8069.0,1.4,1.74
8071.0,1.4,1.78
8073.0,1.36,1.71
8075.0,1.22,1.53
8077.0,1.22,1.58
8079.0,1.28,1.64
8081.0,1.37,1.65
8083.0,1.48,1.57
8084.0,1.49,1.47
8086.0,1.53,1.43
8088.0,1.52,1.44
8090.0,1.49,1.51
8092.0,1.43,1.48
8094.0,1.27,1.39
8096.0,1.28,1.36
8099.0,1.32,1.46
8101.0,1.39,1.41
8103.0,1.57,1.47
8105.0,1.57,1.36
8107.0,1.57,1.27
8109.0,1.55,1.35
8111.0,1.54,1.45
8113.0,1.42,1.41
8115.0,1.28,1.33
8117.0,1.29,1.33
8119.0,1.35,1.38
8121.0,1.45,1.28
8123.0,1.56,1.28
8125.0,1.55,1.2
8126.0,1.58,1.36
8128.0,1.57,1.43
8130.0,1.55,1.52
8132.0,1.46,1.49
8134.0,1.34,1.46
8136.0,1.35,1.54
8138.0,1.38,1.59
8141.0,1.5,1.59
8143.0,1.64,1.64
8145.0,1.63,1.69
8147.0,1.68,1.78
8149.0,1.65,1.81
8151.0,1.56,1.81
8153.0,1.52,1.78
8155.0,1.42,2.02
8157.0,1.45,2.35
8159.0,1.45,2.39
8161.0,1.55,2.39
8163.0,1.64,2.25
8165.0,1.68,2.19
8167.0,1.63,2.23
8169.0,1.57,2.2
8170.0,1.52,2.22
8172.0,1.39,2.05
8174.0,1.28,1.93
8176.0,1.29,2.06
8178.0,1.38,2.02
8180.0,1.47,1.96
8183.0,1.55,1.83
8185.0,1.58,1.78
8187.0,1.59,1.76
8189.0,1.57,1.74
8191.0,1.47,1.68
8193.0,1.38,1.57
8195.0,1.29,1.5
8197.0,1.28,1.57
8199.0,1.35,1.59
8201.0,1.52,1.51
8203.0,1.6,1.44
8205.0,1.57,1.38
8207.0,1.59,1.35
8209.0,1.58,1.36
8211.0,1.51,1.36
8212.0,1.42,1.28
8214.0,1.28,1.24
8216.0,1.29,1.27
8218.0,1.35,1.35
8220.0,1.45,1.25
8222.0,1.59,1.23
8224.0,1.64,1.11
8227.0,1.65,1.16
8229.0,1.59,1.14
8231.0,1.47,1.12
8233.0,1.42,1.16
8235.0,1.31,1.1
8237.0,1.35,1.15
8239.0,1.39,1.23
8241.0,1.5,1.34
8243.0,1.57,1.35
8245.0,1.58,1.22
8247.0,1.61,1.27
8249.0,1.58,1.35
8251.0,1.53,1.39
8253.0,1.48,1.41
8255.0,1.35,1.31
8256.0,1.34,1.34
8258.0,1.39,1.38
8260.0,1.44,1.42
8262.0,1.57,1.45
8264.0,1.61,1.37
8266.0,1.62,1.36
8269.0,1.54,1.32
8271.0,1.52,1.32
8273.0,1.44,1.38
8275.0,1.3,1.34
8277.0,1.31,1.42
8279.0,1.32,1.47
8281.0,1.43,1.45
8283.0,1.52,1.47
8285.0,1.56,1.51
8287.0,1.59,1.49
8289.0,1.54,1.36
8291.0,1.51,1.47
8293.0,1.41,1.43
8295.0,1.31,1.41
8297.0,1.33,1.4
8299.0,1.37,1.37
8300.0,1.47,1.41
8302.0,1.58,1.44
8304.0,1.57,1.39
8306.0,1.57,1.43
8308.0,1.5,1.43
8311.0,1.46,1.31
8313.0,1.41,1.29
8315.0,1.33,1.3
8317.0,1.35,1.32
8319.0,1.35,1.25
8321.0,1.48,1.23
8323.0,1.59,1.24
8325.0,1.6,1.25
8327.0,1.66,1.3
8329.0,1.58,1.36
8331.0,1.51,1.43
8333.0,1.45,1.55
8335.0,1.33,1.51
8337.0,1.35,1.57
8339.0,1.36,1.53
8341.0,1.39,1.46
8342.0,1.55,1.47
8344.0,1.57,1.38
8346.0,1.59,1.36
8348.0,1.53,1.37
8350.0,1.47,1.36
8352.0,1.41,1.27
8355.0,1.29,1.21
8357.0,1.32,1.3
8359.0,1.37,1.27
8361.0,1.49,1.29
8363.0,1.6,1.28
8365.0,1.56,1.21
8367.0,1.54,1.26
8369.0,1.48,1.19
8371.0,1.42,1.14
8373.0,1.35,1.15
8375.0,1.25,1.13
8377.0,1.28,1.22
8379.0,1.35,1.23
8381.0,1.42,1.18
8383.0,1.53,1.13
8385.0,1.61,1.04
8386.0,1.61,1.04
8388.0,1.57,1.12
8390.0,1.48,1.06
8392.0,1.39,1.07
8394.0,1.27,1.12
8397.0,1.26,1.15
8399.0,1.3,1.13
8401.0,1.38,1.16
8403.0,1.54,1.29
8405.0,1.57,1.21
8407.0,1.57,1.18
8409.0,1.58,1.23
8411.0,1.51,1.26
8413.0,1.46,1.23
8415.0,1.34,1.17
8417.0,1.33,1.27
8419.0,1.39,1.35
8421.0,1.5,1.34
8423.0,1.59,1.32
8425.0,1.61,1.24
8427.0,1.65,1.26
8428.0,1.63,1.28
8430.0,1.49,1.31
8432.0,1.42,1.43
8434.0,1.29,1.44
8436.0,1.28,1.44
8439.0,1.37,1.43
8441.0,1.48,1.48
8443.0,1.54,1.51
8445.0,1.56,1.48
8447.0,1.58,1.56
8449.0,1.55,1.63
8451.0,1.49,1.63
8453.0,1.39,1.65
8455.0,1.26,1.61
8457.0,1.28,1.64
8459.0,1.32,1.69
8461.0,1.39,1.77
8463.0,1.43,1.73
8465.0,1.44,1.7
8467.0,1.43,1.76
8469.0,1.33,1.67
8471.0,1.29,1.7
8472.0,1.25,1.7
8474.0,1.12,1.67
8476.0,1.1,1.7
8478.0,1.2,1.72
8480.0,1.28,1.7
8483.0,1.43,1.64
8485.0,1.46,1.53
8487.0,1.46,1.58
8489.0,1.4,1.63
8491.0,1.36,1.65
8493.0,1.25,1.59
8495.0,1.11,1.5
8497.0,1.12,1.48
8499.0,1.19,1.4
8501.0,1.29,1.4
8503.0,1.41,1.27
8505.0,1.4,1.31
8507.0,1.41,1.4
8509.0,1.32,1.59
8511.0,1.29,1.74
8513.0,1.18,1.7
8514.0,1.13,1.62
8516.0,1.15,1.63
8518.0,1.19,1.52
8520.0,1.29,1.32
8522.0,1.41,1.22
8525.0,1.42,1.15
8527.0,1.38,1.16
8529.0,1.35,1.13
8531.0,1.31,1.09
8533.0,1.21,0.95
8535.0,1.14,0.96
8537.0,1.13,0.99
8539.0,1.2,1.04
8541.0,1.27,1.07
8543.0,1.39,1.02
8545.0,1.42,0.94
8547.0,1.42,1.06
8549.0,1.36,1.1
8551.0,1.32,1.11
8553.0,1.23,1.08
8555.0,1.1,1.04
8557.0,1.08,1.19
8558.0,1.12,1.24
8560.0,1.17,1.28
8562.0,1.24,1.29
8564.0,1.27,1.22
8567.0,1.2,1.25
8569.0,1.17,1.31
8571.0,1.15,1.36
8573.0,1.1,1.4
8575.0,0.99,1.51
8577.0,0.96,1.58
8579.0,0.99,1.56
8581.0,1.05,1.64
8583.0,1.09,1.65
8585.0,1.14,1.67
8587.0,1.17,1.84
8589.0,1.15,1.94
8591.0,1.1,2.18
8593.0,0.98,2.17
8595.0,0.84,2.15
8597.0,0.79,2.18
8599.0,0.86,2.2
8601.0,0.94,2.12
8602.0,1.06,2.09
8604.0,1.12,2.09
8606.0,1.14,2.07
8608.0,1.11,2.08
8611.0,1.12,2.05
8613.0,1.06,2.28
8615.0,0.96,2.44
8617.0,0.96,2.48
8619.0,1.05,2.51
8621.0,1.16,2.46
8623.0,1.28,2.29
8625.0,1.33,2.21
8627.0,1.35,2.14
8629.0,1.32,1.88
8631.0,1.34,1.86
8633.0,1.28,2.03
8635.0,1.22,2.15
8637.0,1.26,2.19
8639.0,1.38,2.09
8641.0,1.49,2.07
8643.0,1.62,1.98
8645.0,1.7,1.83
8646.0,1.71,2.1
8648.0,1.69,2.35
8650.0,1.68,2.3
8653.0,1.62,2.22
8655.0,1.56,2.27
8657.0,1.55,2.21
8659.0,1.65,2.06
8661.0,1.82,2.13
8663.0,1.91,2.21
8665.0,1.91,2.13
8667.0,1.91,1.95
8669.0,1.83,1.9
8671.0,1.79,1.96
8673.0,1.68,1.85
8675.0,1.62,1.76
8677.0,1.64,1.79
8679.0,1.73,1.89
8681.0,1.81,2.03
8683.0,1.89,2.02
8685.0,1.9,1.87
8687.0,1.9,1.82
8688.0,1.82,1.72
8690.0,1.8,1.71
8692.0,1.66,1.53
8695.0,1.55,1.36
8697.0,1.55,1.36
8699.0,1.64,1.27
8701.0,1.7,1.18
8703.0,1.8,1.11
8705.0,1.78,1.09
8707.0,1.81,0.89
8709.0,1.81,0.85
8711.0,1.71,0.82
8713.0,1.57,0.71
8715.0,1.51,0.58
8717.0,1.5,0.55
8719.0,1.53,0.36
8721.0,1.59,0.29
8723.0,1.67,0.27
8725.0,1.72,0.2
8727.0,1.79,0.21
8729.0,1.68,0.1
8731.0,1.66,0.06
8732.0,1.54,0.0
8734.0,1.48,0.0
8736.0,1.46,0.0
8739.0,1.52,0.0
8741.0,1.59,0.0
8743.0,1.66,0.0
8745.0,1.7,0.0
8747.0,1.72,0.0
8749.0,1.69,0.0
8751.0,1.63,0.0
8753.0,1.55,0.0
8755.0,1.49,0.0
8757.0,1.52,0.0
8759.0,1.56,0.0
8761.0,1.62,0.0
8763.0,1.72,0.0
8765.0,1.78,0.0
8767.0,1.79,0.0
8769.0,1.67,0.0
8771.0,1.65,0.0
8773.0,1.56,0.0
8775.0,1.54,0.0
8776.0,1.56,0.0
8778.0,1.62,0.0
8781.0,1.7,0.0
8783.0,1.79,0.0
8785.0,1.82,0.0
8787.0,1.87,0.0
8789.0,1.85,0.0
8791.0,1.81,0.0
8793.0,1.71,0.0
8795.0,1.59,0.0
8797.0,1.62,0.0
8799.0,1.67,0.0
8801.0,1.74,0.0
8803.0,1.81,0.0
8805.0,1.84,0.0
8807.0,1.86,0.0
8809.0,1.76,0.0
8811.0,1.69,0.0
8813.0,1.58,0.0
8815.0,1.48,0.0
8817.0,1.46,0.0
8819.0,1.54,0.0
8820.0,1.61,0.0
8823.0,1.73,0.0
8825.0,1.74,0.0
8827.0,1.7,0.0
8829.0,1.68,0.0
8831.0,1.61,0.0
8833.0,1.53,0.0
8835.0,1.46,0.0
8837.0,1.46,0.23
8839.0,1.49,0.44
8841.0,1.57,0.57
8843.0,1.64,0.59
8845.0,1.68,0.69
8847.0,1.61,0.81
8849.0,1.55,0.95
8851.0,1.5,1.06
8853.0,1.41,1.1
8855.0,1.36,1.24
8857.0,1.36,1.37
8859.0,1.38,1.45
8861.0,1.44,1.45
8862.0,1.51,1.44
8864.0,1.53,1.46
8867.0,1.56,1.55
8869.0,1.54,1.76
8871.0,1.46,1.81
8873.0,1.35,1.72
8875.0,1.27,1.84
8877.0,1.28,2.01
8879.0,1.37,2.14
8881.0,1.49,2.29
8883.0,1.52,2.23
8885.0,1.54,2.14
8887.0,1.58,2.15
8889.0,1.55,2.1
8891.0,1.51,2.18
8893.0,1.39,2.14
8895.0,1.31,2.16
8897.0,1.3,2.24
8899.0,1.44,2.37
8901.0,1.49,2.27
8903.0,1.6,2.21
8905.0,1.62,2.17
8906.0,1.61,2.22
8909.0,1.56,2.26
8911.0,1.52,2.27
8913.0,1.39,2.23
8915.0,1.28,2.23
8917.0,1.25,2.28
8919.0,1.32,2.31
8921.0,1.48,2.42
8923.0,1.55,2.33
8925.0,1.58,2.26
8927.0,1.61,2.25
8929.0,1.56,2.31
8931.0,1.52,2.31
8933.0,1.42,2.29
8935.0,1.37,2.37
8937.0,1.4,2.4
8939.0,1.44,2.35
8941.0,1.5,2.35
8943.0,1.56,2.28
8945.0,1.6,2.28
8947.0,1.62,2.31
8949.0,1.55,2.24
8951.0,1.48,2.26
8953.0,1.36,2.3
8955.0,1.3,2.42
8957.0,1.27,2.48
8959.0,1.35,2.48
8961.0,1.4,2.36
8963.0,1.49,2.26
8965.0,1.52,2.29
8967.0,1.52,2.43
8969.0,1.47,2.68
8971.0,1.4,2.68
8973.0,1.35,2.71
8975.0,1.27,2.69
8977.0,1.25,2.62
8979.0,1.32,2.69
8981.0,1.42,2.68
8983.0,1.5,2.55
8985.0,1.56,2.5
8987.0,1.56,2.51
8989.0,1.51,2.46
8991.0,1.44,2.39
8992.0,1.34,2.18
8995.0,1.31,2.1
8997.0,1.33,2.19
8999.0,1.39,2.13
9001.0,1.49,2.06
9003.0,1.55,1.92
9005.0,1.57,1.9
9007.0,1.56,1.96
9009.0,1.52,1.95
9011.0,1.48,1.94
9013.0,1.36,1.79
9015.0,1.29,1.78
9017.0,1.29,1.8
9019.0,1.41,1.81
9021.0,1.46,1.84
9023.0,1.52,1.73
9025.0,1.55,1.65
9027.0,1.52,1.65
9029.0,1.49,1.76
9031.0,1.42,1.74
9033.0,1.31,1.58
9035.0,1.27,1.57
9037.0,1.29,1.67
9039.0,1.34,1.73
9041.0,1.42,1.71
9043.0,1.51,1.68
9045.0,1.54,1.65
9047.0,1.53,1.69
9049.0,1.5,1.73
9051.0,1.46,1.58
9053.0,1.32,1.42
9055.0,1.24,1.41
9057.0,1.25,1.47
9059.0,1.27,1.45
9061.0,1.38,1.44
9063.0,1.43,1.37
9065.0,1.46,1.39
9067.0,1.48,1.37
9069.0,1.4,1.35
9071.0,1.41,1.48
9073.0,1.31,1.46
9075.0,1.2,1.5
9077.0,1.25,1.62
9079.0,1.3,1.64
9081.0,1.44,1.67
9083.0,1.5,1.66
9085.0,1.52,1.57
9087.0,1.48,1.55
9089.0,1.47,1.52
9091.0,1.4,1.47
9093.0,1.3,1.45
9095.0,1.2,1.51
9097.0,1.19,1.54
9099.0,1.32,1.51
9101.0,1.39,1.52
9103.0,1.51,1.46
9105.0,1.56,1.52
9107.0,1.57,1.55
9109.0,1.56,1.48
9111.0,1.48,1.4
9113.0,1.39,1.35
9115.0,1.3,1.3
9117.0,1.3,1.29
9119.0,1.34,1.38
9122.0,1.43,1.42
9123.0,1.51,1.36
9125.0,1.51,1.35
9127.0,1.47,1.41
9129.0,1.43,1.49
9131.0,1.35,1.47
9133.0,1.26,1.45
9135.0,1.23,1.57
9137.0,1.23,1.64
9139.0,1.31,1.57
9141.0,1.42,1.5
9143.0,1.47,1.41
9145.0,1.53,1.5
9147.0,1.5,1.49
9149.0,1.42,1.5
9151.0,1.35,1.48
9153.0,1.28,1.51
9155.0,1.24,1.63
9157.0,1.2,1.68
9159.0,1.33,1.68
9161.0,1.41,1.73
9163.0,1.52,1.85
9166.0,1.56,1.77
9167.0,1.54,1.75
9169.0,1.47,1.73
9171.0,1.39,1.65
9173.0,1.33,1.62
9175.0,1.3,1.64
9177.0,1.29,1.61
9179.0,1.37,1.52
9181.0,1.48,1.51
9183.0,1.57,1.45
9185.0,1.6,1.43
9187.0,1.61,1.54
9189.0,1.54,1.52
9191.0,1.42,1.52
9193.0,1.29,1.48
9195.0,1.18,1.43
9197.0,1.19,1.41
9199.0,1.27,1.36
9201.0,1.39,1.37
9203.0,1.48,1.33
9205.0,1.55,1.39
9208.0,1.56,1.44
9210.0,1.52,1.47
9211.0,1.46,1.52
9213.0,1.32,1.53
9215.0,1.3,1.48
9217.0,1.27,1.53
9219.0,1.38,1.57
9221.0,1.45,1.47
9223.0,1.55,1.43
9225.0,1.58,1.41
9227.0,1.55,1.44
9229.0,1.52,1.39
9231.0,1.49,1.38
9233.0,1.37,1.44
9235.0,1.29,1.53
9237.0,1.27,1.56
9239.0,1.39,1.62
9241.0,1.48,1.55
9243.0,1.55,1.44
9245.0,1.62,1.46
9247.0,1.55,1.41
9250.0,1.47,1.43
9252.0,1.43,1.43
9254.0,1.35,1.44
9255.0,1.33,1.55
9257.0,1.37,1.6
9259.0,1.45,1.6
9261.0,1.53,1.66
9263.0,1.63,1.65
9265.0,1.67,1.64
9267.0,1.64,1.64
9269.0,1.64,1.65
9271.0,1.56,1.64
9273.0,1.43,1.57
9275.0,1.39,1.54
9277.0,1.41,1.53
9279.0,1.44,1.42
9281.0,1.54,1.55
9283.0,1.6,1.5
9285.0,1.63,1.41
9287.0,1.61,1.36
9289.0,1.56,1.32
9291.0,1.53,1.28
9294.0,1.39,1.19
9296.0,1.33,1.22
9298.0,1.32,1.29
9299.0,1.36,1.17
9301.0,1.45,1.09
9303.0,1.54,0.96
9305.0,1.59,0.98
9307.0,1.53,0.93
9309.0,1.5,0.98
9311.0,1.5,0.99
9313.0,1.34,0.87
9315.0,1.33,0.89
9317.0,1.33,0.9
9319.0,1.41,0.96
9321.0,1.56,1.02
9323.0,1.66,0.99
9325.0,1.7,0.98
9327.0,1.67,1.04
9329.0,1.56,1.03
9331.0,1.51,1.04
9333.0,1.41,0.98
9336.0,1.36,1.01
9338.0,1.38,1.15
9340.0,1.43,1.12
9342.0,1.54,1.18
9343.0,1.6,1.23
9345.0,1.63,1.3
9347.0,1.61,1.22
9349.0,1.57,1.2
9351.0,1.51,1.21
9353.0,1.37,1.27
9355.0,1.33,1.27
9357.0,1.28,1.29
9359.0,1.34,1.31
9361.0,1.41,1.34
9363.0,1.44,1.32
9365.0,1.48,1.42
9367.0,1.45,1.52
9369.0,1.39,1.56
9371.0,1.33,1.57
9373.0,1.24,1.5
9375.0,1.22,1.5
9378.0,1.22,1.51
9380.0,1.33,1.51
9382.0,1.42,1.45
9384.0,1.47,1.39
9386.0,1.51,1.42
9387.0,1.55,1.45
9389.0,1.49,1.55
9391.0,1.39,1.59
9393.0,1.3,1.57
9395.0,1.3,1.61
9397.0,1.28,1.62
9399.0,1.37,1.58
9401.0,1.46,1.64
9403.0,1.48,1.57
9405.0,1.48,1.57
9407.0,1.47,1.65
9409.0,1.46,1.69
9411.0,1.38,1.58
9413.0,1.26,1.51
9415.0,1.28,1.55
9417.0,1.25,1.54
9419.0,1.34,1.51
9422.0,1.46,1.52
9424.0,1.56,1.49
9426.0,1.59,1.49
9428.0,1.63,1.56
9430.0,1.57,1.47
9431.0,1.53,1.39
9433.0,1.44,1.4
9435.0,1.45,1.57
9437.0,1.41,1.64
9439.0,1.46,1.62
9441.0,1.54,1.51
9443.0,1.59,1.42
9445.0,1.63,1.45
9447.0,1.64,1.53
9449.0,1.58,1.56
9451.0,1.53,1.55
9453.0,1.39,1.49
9455.0,1.35,1.47
9457.0,1.38,1.54
9459.0,1.47,1.54
9461.0,1.54,1.58
9464.0,1.55,1.54
9466.0,1.6,1.59
9468.0,1.57,1.57
9470.0,1.45,1.47
9472.0,1.41,1.5
9474.0,1.29,1.43
9475.0,1.32,1.5
9477.0,1.33,1.6
9479.0,1.42,1.63
9481.0,1.51,1.62
9483.0,1.57,1.55
9485.0,1.62,1.56
9487.0,1.6,1.55
9489.0,1.54,1.56
9491.0,1.48,1.57
9493.0,1.35,1.53
9495.0,1.33,1.6
9497.0,1.34,1.67
9499.0,1.4,1.72
9501.0,1.46,1.67
9503.0,1.56,1.6
9506.0,1.58,1.63
9508.0,1.55,1.68
9510.0,1.48,1.74
9512.0,1.44,1.75
9514.0,1.31,1.76
9516.0,1.28,1.78
9518.0,1.24,1.8
9519.0,1.32,1.87
9521.0,1.46,1.85
9523.0,1.56,1.73
9525.0,1.61,1.77
9527.0,1.56,2.13
9529.0,1.57,2.39
9531.0,1.46,2.36
9533.0,1.34,2.21
9535.0,1.33,2.24
9537.0,1.35,2.27
9539.0,1.4,2.23
9541.0,1.48,2.19
9543.0,1.56,2.14
9545.0,1.59,2.09
9547.0,1.61,2.05
9550.0,1.56,1.99
9552.0,1.51,2.06
9554.0,1.36,2.09
9556.0,1.37,2.08
9558.0,1.34,2.03
9560.0,1.45,1.94
9562.0,1.55,1.85
9563.0,1.61,1.73
9565.0,1.65,1.72
9567.0,1.59,1.76
9569.0,1.53,1.82
9571.0,1.47,1.73
9573.0,1.35,1.6
9575.0,1.31,1.57
9577.0,1.33,1.57
9579.0,1.4,1.58
9581.0,1.52,1.69
9583.0,1.55,1.68
9585.0,1.56,1.61
9587.0,1.48,1.46
9589.0,1.44,1.45
9592.0,1.38,1.55
9594.0,1.28,1.49
9596.0,1.28,1.55
9598.0,1.28,1.63
9600.0,1.36,1.67
9602.0,1.5,1.65
9604.0,1.52,1.62
9606.0,1.52,1.67
9607.0,1.51,1.67
9609.0,1.42,1.66
9611.0,1.39,1.74
9613.0,1.26,1.66
9615.0,1.3,1.71
9617.0,1.29,1.65
9619.0,1.3,1.82
9621.0,1.39,2.08
9623.0,1.45,2.15
9625.0,1.54,2.18
9627.0,1.51,2.15
9629.0,1.47,2.02
9631.0,1.44,1.79
9634.0,1.31,1.62
9636.0,1.33,1.78
9638.0,1.37,1.83
9640.0,1.5,1.77
9642.0,1.54,1.64
9644.0,1.59,1.5
9646.0,1.57,1.66
9648.0,1.56,1.75
9650.0,1.47,1.64
9651.0,1.39,1.48
9653.0,1.21,1.19
9655.0,1.17,1.15
9657.0,1.1,1.16
9659.0,1.2,1.08
9661.0,1.28,1.07
9663.0,1.26,1.12
9665.0,1.25,1.37
9667.0,1.2,1.36
9669.0,1.12,1.5
9671.0,1.07,1.52
9673.0,1.0,1.26
9675.0,1.02,1.42
9678.0,1.02,1.55
9680.0,1.13,1.46
9682.0,1.21,1.52
9684.0,1.26,1.38
9686.0,1.34,1.45
9688.0,1.37,1.55
9690.0,1.29,1.33
9692.0,1.25,1.39
9693.0,1.12,1.7
9695.0,1.11,1.74
9697.0,1.17,1.74
9699.0,1.23,1.78
9701.0,1.34,1.76
9703.0,1.39,1.55
9705.0,1.49,1.42
9707.0,1.45,1.58
9709.0,1.45,1.78
9711.0,1.4,1.76
9713.0,1.3,1.68
9715.0,1.33,1.73
9717.0,1.32,1.8
9720.0,1.44,1.84
9722.0,1.54,1.84
9724.0,1.57,1.73
9726.0,1.63,1.54
9728.0,1.63,1.51
9730.0,1.56,1.74
9732.0,1.5,1.76
9734.0,1.37,1.56
9736.0,1.35,1.68
9737.0,1.37,1.62
9739.0,1.45,1.56
9741.0,1.57,1.62
9743.0,1.63,1.54
9745.0,1.65,1.6
9747.0,1.64,1.76
9749.0,1.58,2.05
9751.0,1.49,2.11
9753.0,1.31,2.02
9755.0,1.31,2.11
9757.0,1.35,2.05
9759.0,1.44,1.88
9762.0,1.55,1.74
9764.0,1.58,1.63
9766.0,1.6,1.64
9768.0,1.56,1.68
9770.0,1.5,1.55
9772.0,1.42,1.58
9774.0,1.3,1.51
9776.0,1.26,1.42
9778.0,1.26,1.46
9780.0,1.41,1.5
9781.0,1.54,1.42
9783.0,1.6,1.28
9785.0,1.67,1.32
9787.0,1.62,1.25
9789.0,1.64,1.27
9791.0,1.55,1.19
9793.0,1.41,1.08
9795.0,1.38,1.07
9797.0,1.42,1.13
9799.0,1.55,1.11
9801.0,1.66,1.03
9803.0,1.68,0.83
9806.0,1.72,0.81
9808.0,1.72,0.87
9810.0,1.64,0.82
9812.0,1.59,0.72
9814.0,1.49,0.76
9816.0,1.48,0.72
9818.0,1.46,0.69
9820.0,1.58,0.66
9822.0,1.73,0.54
9824.0,1.79,0.47
9825.0,1.8,0.45
9827.0,1.77,0.39
9829.0,1.73,0.43
9831.0,1.7,0.45
9833.0,1.56,0.22
9835.0,1.56,0.15
9837.0,1.48,0.14
9839.0,1.56,0.14
9841.0,1.65,0.14
9843.0,1.69,0.1
9845.0,1.73,0.08
9848.0,1.72,0.1
9850.0,1.66,0.01
9852.0,1.63,0.0
9854.0,1.55,0.0
9856.0,1.57,0.0
9858.0,1.57,0.0
9860.0,1.65,0.0
9862.0,1.75,0.0
9864.0,1.78,0.0
9866.0,1.78,0.0
9867.0,1.76,0.0
9869.0,1.69,0.0
9871.0,1.62,0.0
9873.0,1.49,0.0
9875.0,1.51,0.0
9877.0,1.52,0.0
9879.0,1.55,0.0
9881.0,1.7,0.0
9883.0,1.7,0.0
9885.0,1.71,0.0
9887.0,1.67,0.0
9890.0,1.59,0.0
9892.0,1.53,0.0
9894.0,1.44,0.0
9896.0,1.44,0.0
9898.0,1.48,0.0
9900.0,1.57,0.0
9902.0,1.71,0.0
9904.0,1.77,0.0
9906.0,1.85,0.0
9908.0,1.79,0.0
9910.0,1.69,0.0
9911.0,1.64,0.0
9913.0,1.51,0.0
9915.0,1.46,0.0
9917.0,1.46,0.0
9919.0,1.57,0.0
9921.0,1.66,0.06
9923.0,1.7,0.16
9925.0,1.75,0.35
9927.0,1.69,0.48
9929.0,1.63,0.65
9931.0,1.55,0.74
9934.0,1.39,0.66
9936.0,1.33,0.84
9938.0,1.37,1.03
9940.0,1.46,1.2
9942.0,1.53,1.29
9944.0,1.58,1.3
9946.0,1.63,1.37
9948.0,1.55,1.42
9950.0,1.52,1.59
9952.0,1.47,1.65
9954.0,1.31,1.54
9955.0,1.31,1.56
9957.0,1.33,1.73
9959.0,1.39,1.93
9961.0,1.52,2.04
9963.0,1.55,1.99
9965.0,1.62,2.04
9967.0,1.55,2.05
9969.0,1.49,2.15
9971.0,1.41,2.24
9973.0,1.26,2.22
9976.0,1.22,2.24
9978.0,1.26,2.32
9980.0,1.36,2.29
9982.0,1.5,2.27
9984.0,1.51,2.15
9986.0,1.49,2.15
9988.0,1.46,2.19
9990.0,1.39,2.17
9992.0,1.33,2.18
9994.0,1.18,2.2
9996.0,1.22,2.27
9998.0,1.25,2.29
9999.0,1.34,2.27
10001.0,1.45,2.3
10003.0,1.47,2.2
10005.0,1.5,2.19
10007.0,1.5,2.15
10009.0,1.45,2.1
10011.0,1.41,2.28
10013.0,1.22,2.14
10015.0,1.25,2.15
10018.0,1.26,2.04
10020.0,1.32,2.02
10022.0,1.42,2.24
10024.0,1.45,2.25
10026.0,1.52,2.27
10028.0,1.49,2.18
10030.0,1.5,2.24
10032.0,1.42,2.16
10034.0,1.28,2.13
10036.0,1.27,2.15
10038.0,1.35,2.19
10040.0,1.43,2.06
10042.0,1.48,1.95
10043.0,1.52,1.84
10045.0,1.54,1.9
10047.0,1.45,1.8
10049.0,1.4,1.84
10051.0,1.31,1.88
10053.0,1.2,1.84
10055.0,1.2,1.92
10057.0,1.21,1.96
10059.0,1.28,1.89
10062.0,1.43,2.02
10064.0,1.46,1.94
10066.0,1.51,1.91
10068.0,1.47,1.83
10070.0,1.43,1.82
10072.0,1.35,1.84
10074.0,1.26,1.77
10076.0,1.24,1.8
10078.0,1.28,1.97
10080.0,1.37,2.1
10082.0,1.47,2.16
10084.0,1.47,2.01
10085.0,1.55,2.0
10087.0,1.51,2.02
10089.0,1.57,2.21
10091.0,1.42,2.12
10093.0,1.24,2.09
10095.0,1.22,2.02
10097.0,1.23,2.0
10099.0,1.31,1.98
10101.0,1.42,2.07
10104.0,1.47,2.06
10106.0,1.51,2.0
10108.0,1.5,1.98
10110.0,1.45,2.03
10112.0,1.35,1.98
10114.0,1.24,1.88
10116.0,1.22,1.88
10118.0,1.35,1.97
10120.0,1.35,1.85
10122.0,1.45,1.83
10124.0,1.46,1.68
10126.0,1.48,1.61
10128.0,1.45,1.73
10129.0,1.36,1.7
10131.0,1.29,1.72
10133.0,1.21,1.65
10135.0,1.23,1.68
10137.0,1.24,1.73
10139.0,1.32,1.69
10141.0,1.44,1.74
10143.0,1.52,1.65
10146.0,1.52,1.61
10148.0,1.5,1.7
10150.0,1.42,1.72
10152.0,1.33,1.67
10154.0,1.19,1.62
10156.0,1.19,1.64
10158.0,1.21,1.7
10160.0,1.39,1.73
10162.0,1.48,1.72
10164.0,1.52,1.58
10166.0,1.55,1.6
10168.0,1.49,1.63
10170.0,1.42,1.65
10171.0,1.36,1.65
10173.0,1.22,1.57
10175.0,1.22,1.61
10177.0,1.26,1.7
10179.0,1.39,1.72
10181.0,1.47,1.66
10183.0,1.51,1.55
10185.0,1.57,1.53
10187.0,1.54,1.47
10190.0,1.49,1.5
10192.0,1.41,1.45
10194.0,1.29,1.42
10196.0,1.25,1.42
10198.0,1.28,1.56
10200.0,1.37,1.44
10202.0,1.48,1.5
10204.0,1.53,1.44
10206.0,1.57,1.43
10208.0,1.53,1.43
10210.0,1.5,1.44
10212.0,1.46,1.46
10213.0,1.32,1.34
10215.0,1.33,1.29
10217.0,1.37,1.31
10219.0,1.42,1.27
10221.0,1.5,1.23
10223.0,1.56,1.24
10225.0,1.64,1.31
10227.0,1.62,1.26
10229.0,1.56,1.38
10232.0,1.45,1.39
10234.0,1.29,1.27
10236.0,1.27,1.29
10238.0,1.32,1.39
10240.0,1.43,1.49
10242.0,1.52,1.55
10244.0,1.52,1.33
10246.0,1.57,1.42
10248.0,1.5,1.38
10250.0,1.42,1.29
10252.0,1.4,1.24
10254.0,1.29,1.22
10256.0,1.25,1.27
10257.0,1.27,1.29
10259.0,1.39,1.28
10261.0,1.46,1.28
10263.0,1.48,1.18
10265.0,1.48,1.16
10267.0,1.4,1.23
10269.0,1.38,1.32
10271.0,1.34,1.34
10274.0,1.17,1.27
10276.0,1.21,1.22
10278.0,1.24,1.24
10280.0,1.32,1.22
10282.0,1.46,1.25
10284.0,1.46,1.18
10286.0,1.49,1.18
10288.0,1.47,1.24
10290.0,1.43,1.27
10292.0,1.4,1.33
10294.0,1.26,1.28
10296.0,1.28,1.35
10298.0,1.34,1.51
10299.0,1.42,1.55
10301.0,1.58,1.61
10303.0,1.57,1.5
10305.0,1.57,1.53
10307.0,1.53,1.55
10309.0,1.43,1.51
10311.0,1.34,1.66
10313.0,1.2,1.61
10315.0,1.23,1.61
10318.0,1.31,1.64
10320.0,1.39,1.59
10322.0,1.53,1.63
10324.0,1.56,1.56
10326.0,1.55,1.59
10328.0,1.52,1.57
10330.0,1.46,1.53
10332.0,1.39,1.49
10334.0,1.29,1.41
10336.0,1.33,1.43
10338.0,1.35,1.5
10340.0,1.44,1.52
10341.0,1.53,1.61
10343.0,1.54,1.55
10345.0,1.57,1.67
10347.0,1.59,1.73
10349.0,1.52,1.76
10351.0,1.41,1.75
10353.0,1.26,1.62
10355.0,1.33,1.62
10357.0,1.34,1.68
10360.0,1.45,1.69
10362.0,1.52,1.64
10364.0,1.55,1.49
10366.0,1.61,1.57
10368.0,1.54,1.49
10370.0,1.51,1.53
10372.0,1.44,1.48
10374.0,1.29,1.4
10376.0,1.28,1.41
10378.0,1.33,1.48
10380.0,1.44,1.49
10382.0,1.48,1.44
10384.0,1.49,1.39
10385.0,1.53,1.46
10387.0,1.47,1.57
10389.0,1.4,1.54
10391.0,1.39,1.44
10393.0,1.27,1.37
10395.0,1.28,1.51
10397.0,1.27,1.58
10399.0,1.34,1.57
10402.0,1.47,1.58
10404.0,1.53,1.52
10406.0,1.57,1.55
10408.0,1.54,1.59
10410.0,1.5,1.6
10412.0,1.43,1.57
10414.0,1.27,1.54
10416.0,1.27,1.56
10418.0,1.28,1.48
10420.0,1.35,1.42
10422.0,1.47,1.41
10424.0,1.53,1.36
10426.0,1.57,1.41
10427.0,1.52,1.4
10429.0,1.52,1.35
10431.0,1.46,1.36
10433.0,1.34,1.29
10435.0,1.36,1.28
10437.0,1.4,1.3
10439.0,1.46,1.26
10441.0,1.56,1.29
10443.0,1.61,1.23
10446.0,1.66,1.34
10448.0,1.61,1.33
10450.0,1.59,1.4
10452.0,1.54,1.32
10454.0,1.4,1.2
10456.0,1.36,1.2
10458.0,1.38,1.24
10460.0,1.49,1.24
10462.0,1.6,1.35
10464.0,1.62,1.24
10466.0,1.62,1.22
10468.0,1.57,1.26
10469.0,1.51,1.31
10471.0,1.47,1.41
10473.0,1.35,1.39
10475.0,1.32,1.42
10477.0,1.34,1.42
10479.0,1.45,1.35
10481.0,1.6,1.36
10483.0,1.62,1.3
10485.0,1.65,1.38
10488.0,1.65,1.39
10490.0,1.61,1.35
10492.0,1.5,1.26
10494.0,1.35,1.17
10496.0,1.39,1.19
10498.0,1.4,1.26
10500.0,1.49,1.27
10502.0,1.58,1.25
10504.0,1.6,1.17
10506.0,1.65,1.23
10508.0,1.62,1.28
10510.0,1.57,1.34
10512.0,1.48,1.35
10513.0,1.31,1.56
10515.0,1.32,1.47
10517.0,1.28,1.35
10519.0,1.36,1.41
10521.0,1.46,1.49
10523.0,1.46,1.34
10525.0,1.45,1.35
10527.0,1.45,1.33
10530.0,1.39,1.28
10532.0,1.33,1.3
10534.0,1.21,1.18
10536.0,1.21,1.18
10538.0,1.28,1.24
10540.0,1.36,1.18
10542.0,1.46,1.23
10544.0,1.48,1.15
10546.0,1.5,1.17
10548.0,1.5,1.27
10550.0,1.43,1.24
10552.0,1.38,1.18
10554.0,1.23,1.08
10555.0,1.25,1.29
10557.0,1.28,1.43
10559.0,1.4,1.43
10561.0,1.53,1.53
10563.0,1.51,1.34
10565.0,1.55,1.34
10567.0,1.52,1.24
10569.0,1.44,1.12
10571.0,1.43,1.14
10574.0,1.34,1.05
10576.0,1.35,1.05
10578.0,1.4,1.1
10580.0,1.46,1.09
10582.0,1.56,1.14
10584.0,1.59,1.05
10586.0,1.6,1.09
10588.0,1.58,1.15
10590.0,1.54,1.1
10592.0,1.47,1.06
10594.0,1.33,1.01
10596.0,1.34,1.09
10598.0,1.35,1.18
10599.0,1.45,1.21
10601.0,1.54,1.35
10603.0,1.55,1.41
10605.0,1.61,1.38
10607.0,1.56,1.28
10609.0,1.47,1.08
10611.0,1.46,1.11
10613.0,1.35,1.14
10616.0,1.36,1.17
10618.0,1.37,1.2
10620.0,1.43,1.19
10622.0,1.53,1.17
10624.0,1.55,1.13
10626.0,1.59,1.27
10628.0,1.47,1.2
10630.0,1.44,1.22
10632.0,1.39,1.2
10634.0,1.28,1.16
10636.0,1.32,1.23
10638.0,1.37,1.16
10640.0,1.46,1.13
10641.0,1.54,1.19
10643.0,1.58,1.09
10645.0,1.63,1.11
10647.0,1.54,1.14
10649.0,1.49,1.17
10651.0,1.44,1.12
10653.0,1.27,1.1
10655.0,1.25,1.42
10658.0,1.31,1.7
10660.0,1.39,1.85
10662.0,1.51,1.67
10664.0,1.51,1.44
10666.0,1.55,1.54
10668.0,1.52,1.63
10670.0,1.54,1.75
10672.0,1.5,1.58
10674.0,1.38,1.46
10676.0,1.36,1.35
10678.0,1.39,1.27
10680.0,1.5,1.21
10682.0,1.62,1.18
10683.0,1.56,1.03
10685.0,1.55,1.05
10687.0,1.51,0.83
10689.0,1.44,0.93
10691.0,1.37,1.14
10693.0,1.19,1.14
10695.0,1.18,1.17
10697.0,1.16,1.05
10699.0,1.22,0.94
10702.0,1.28,0.84
10704.0,1.26,0.78
10706.0,1.28,0.78
10708.0,1.26,0.67
10710.0,1.21,0.72
10712.0,1.06,0.65
10714.0,0.89,0.37
10716.0,0.86,0.36
10718.0,0.91,0.46
10720.0,1.02,0.54
10722.0,1.13,0.51
10724.0,1.16,0.47
10726.0,1.17,0.37
10727.0,1.14,0.27
10729.0,1.07,0.28
10731.0,1.04,0.34
10733.0,0.94,0.4
10735.0,0.82,0.47
10737.0,0.74,0.13
10739.0,0.82,0.0
10741.0,0.95,0.07
10744.0,0.95,0.33
10746.0,0.96,0.24
10748.0,0.91,0.04
10750.0,0.85,0.04
10752.0,0.76,0.04
10754.0,0.68,0.04
10756.0,0.74,0.0
10758.0,0.83,0.0
10760.0,0.93,0.0
10762.0,1.09,0.08
10764.0,1.15,0.0
10766.0,1.25,0.1
10768.0,1.19,0.09
10769.0,1.17,0.37
10771.0,1.09,0.32
10773.0,0.98,0.34
10775.0,1.01,0.29
10777.0,1.06,0.46
10779.0,1.17,0.5
10781.0,1.35,0.4
10783.0,1.39,0.45
10786.0,1.45,0.61
10788.0,1.43,0.6
10790.0,1.42,0.53
10792.0,1.35,0.46
10794.0,1.21,0.48
10796.0,1.25,0.65
10798.0,1.34,0.6
10800.0,1.45,0.63
10802.0,1.65,0.51
10804.0,1.69,0.47
10806.0,1.72,0.57
10808.0,1.78,0.96
10810.0,1.74,1.21
10811.0,1.63,1.03
10813.0,1.52,0.98
10815.0,1.57,1.0
10817.0,1.58,0.96
10819.0,1.7,0.99
10821.0,1.84,0.96
10823.0,1.85,0.86
10825.0,1.87,0.78
10827.0,1.81,0.81
10830.0,1.78,0.95
10832.0,1.69,0.95
10834.0,1.56,0.88
10836.0,1.6,0.97
10838.0,1.63,0.94
10840.0,1.69,0.94
10842.0,1.83,1.05
10844.0,1.86,1.05
10846.0,1.89,1.19
10848.0,1.9,1.19
10850.0,1.79,1.1
10852.0,1.72,1.12
10854.0,1.59,1.09
10855.0,1.63,1.16
10857.0,1.72,1.22
10859.0,1.78,1.24
10861.0,1.9,1.32
10863.0,1.91,1.31
10865.0,1.98,1.37
10867.0,1.93,1.31
10869.0,1.89,1.49
10872.0,1.87,1.46
10874.0,1.74,1.49
10876.0,1.73,1.53
10878.0,1.74,1.54
10880.0,1.84,1.52
10882.0,1.95,1.48
10884.0,1.98,1.42
10886.0,2.01,1.47
10888.0,2.0,1.59
10890.0,1.89,1.62
10892.0,1.84,1.87
10894.0,1.7,1.98
10896.0,1.69,2.03
10897.0,1.72,2.04
10899.0,1.83,2.05
10901.0,1.93,2.17
10903.0,1.91,2.22
10905.0,1.92,2.36
10907.0,1.85,2.34
10909.0,1.79,2.4
10911.0,1.72,2.36
10914.0,1.59,2.35
10916.0,1.55,2.43
10918.0,1.58,2.52
10920.0,1.72,2.59
10922.0,1.77,2.6
10924.0,1.77,2.56
10926.0,1.76,2.61
10928.0,1.73,2.6
10930.0,1.72,2.72
10932.0,1.65,2.66
10934.0,1.5,2.62
10936.0,1.45,2.66
10938.0,1.49,2.77
10939.0,1.56,2.83
10941.0,1.66,2.83
10943.0,1.69,2.59
10945.0,1.74,2.57
10947.0,1.66,2.59
10949.0,1.66,2.67
10951.0,1.64,2.66
10953.0,1.56,2.69
10955.0,1.59,2.78
10958.0,1.57,2.96
10960.0,1.69,3.03
10962.0,1.8,2.99
10964.0,1.77,2.94
10966.0,1.77,2.98
10968.0,1.66,2.96
10970.0,1.6,3.17
10972.0,1.49,3.25
10974.0,1.33,3.12
10976.0,1.29,3.09
10978.0,1.32,3.18
10980.0,1.4,3.18
10982.0,1.51,3.19
10983.0,1.55,3.12
10985.0,1.56,3.13
10987.0,1.51,2.99
10989.0,1.43,2.9
10991.0,1.31,2.78
10993.0,1.18,2.72
10995.0,1.19,2.63
10997.0,1.23,2.53
11000.0,1.33,2.48
11002.0,1.47,2.41
11004.0,1.46,2.24
11006.0,1.52,2.28
11008.0,1.47,2.24
11010.0,1.45,2.22
11012.0,1.39,2.14
11014.0,1.26,2.01
11016.0,1.29,2.02
11018.0,1.32,2.13
11020.0,1.42,2.22
11022.0,1.54,2.18
11024.0,1.57,2.23
11025.0,1.56,2.25
11027.0,1.57,2.23
11029.0,1.52,2.22
11031.0,1.44,2.12
11033.0,1.33,1.99
11035.0,1.35,2.0
11037.0,1.32,2.0
11039.0,1.44,1.99
11042.0,1.52,1.85
11044.0,1.51,1.75
11046.0,1.55,1.88
11048.0,1.51,1.87
11050.0,1.4,1.79
11052.0,1.35,1.75
11054.0,1.2,1.75
11056.0,1.26,1.84
11058.0,1.27,1.95
11060.0,1.36,1.92
11062.0,1.45,1.97
11064.0,1.48,1.93
11066.0,1.53,1.94
11067.0,1.45,1.88
11069.0,1.39,1.78
11071.0,1.34,1.74
11073.0,1.22,1.67
11075.0,1.24,1.7
11077.0,1.29,1.85
11079.0,1.35,1.9
11081.0,1.43,1.9
11083.0,1.42,1.76
11086.0,1.48,1.78
11088.0,1.48,1.78
11090.0,1.4,1.75
11092.0,1.36,1.72
11094.0,1.26,1.65
11096.0,1.25,1.7
11098.0,1.34,1.73
11100.0,1.44,1.69
11102.0,1.52,1.71
11104.0,1.53,1.57
11106.0,1.53,1.59
11108.0,1.47,1.5
11110.0,1.48,1.51
11111.0,1.43,1.46
11113.0,1.29,1.42
11115.0,1.28,1.46
11117.0,1.31,1.47
11119.0,1.37,1.48
11121.0,1.46,1.52
11123.0,1.48,1.57
11125.0,1.53,1.55
11128.0,1.51,1.54
11130.0,1.47,1.5
11132.0,1.42,1.44
11134.0,1.32,1.38
11136.0,1.35,1.42
11138.0,1.37,1.51
11140.0,1.44,1.5
11142.0,1.54,1.4
11144.0,1.52,1.3
11146.0,1.52,1.42
11148.0,1.47,1.39
11150.0,1.44,1.45
11152.0,1.38,1.48
11153.0,1.23,1.46
11155.0,1.28,1.53
11157.0,1.32,1.58
11159.0,1.4,1.56
11161.0,1.5,1.59
11163.0,1.51,1.45
11165.0,1.51,1.43
11167.0,1.48,1.48
11170.0,1.45,1.58
11172.0,1.35,1.63
11174.0,1.27,1.58
11176.0,1.3,1.54
11178.0,1.37,1.64
11180.0,1.46,1.61
11182.0,1.61,1.5
11184.0,1.59,1.4
11186.0,1.61,1.42
11188.0,1.57,1.48
11190.0,1.52,1.49
11192.0,1.41,1.67
11194.0,1.29,1.65
11195.0,1.29,1.73
11197.0,1.3,1.75
11199.0,1.43,1.77
11201.0,1.57,1.73
11203.0,1.54,1.56
11205.0,1.56,1.51
11207.0,1.6,1.65
11209.0,1.51,1.67
11211.0,1.42,1.54
11214.0,1.32,1.55
11216.0,1.28,1.55
11218.0,1.3,1.51
11220.0,1.44,1.43
11222.0,1.53,1.42
11224.0,1.56,1.36
11226.0,1.58,1.37
11228.0,1.57,1.43
11230.0,1.5,1.41
11232.0,1.41,1.29
11234.0,1.31,1.18
11236.0,1.31,1.21
11238.0,1.32,1.27
11239.0,1.43,1.41
11241.0,1.53,1.43
11243.0,1.55,1.31
11245.0,1.55,1.34
11247.0,1.51,1.44
11249.0,1.45,1.41
11251.0,1.37,1.38
11253.0,1.24,1.42
11256.0,1.27,1.47
11258.0,1.35,1.53
11260.0,1.42,1.54
11262.0,1.55,1.58
11264.0,1.56,1.53
11266.0,1.58,1.6
11268.0,1.52,1.62
11270.0,1.46,1.67
11272.0,1.43,1.64
11274.0,1.3,1.66
11276.0,1.3,1.72
11278.0,1.38,1.71
11280.0,1.41,1.62
11281.0,1.49,1.68
11283.0,1.51,1.72
11285.0,1.5,1.72
11287.0,1.44,1.73
11289.0,1.38,1.75
11291.0,1.33,1.75
11293.0,1.21,1.79
11295.0,1.18,1.86
11298.0,1.24,1.87
11300.0,1.34,1.83
11302.0,1.47,1.79
11304.0,1.49,1.68
11306.0,1.56,1.8
11308.0,1.55,1.78
11310.0,1.5,1.73
11312.0,1.38,1.65
11314.0,1.26,1.65
11316.0,1.27,1.71
11318.0,1.33,1.72
11320.0,1.44,1.71
11322.0,1.52,1.63
11323.0,1.53,1.65
11325.0,1.56,1.81
11327.0,1.52,1.69
11329.0,1.48,1.63
11331.0,1.41,1.6
11333.0,1.29,1.54
11335.0,1.34,1.53
11337.0,1.39,1.47
11339.0,1.44,1.32
11342.0,1.56,1.26
11344.0,1.57,1.18
11346.0,1.64,1.25
11348.0,1.58,1.24
11350.0,1.49,1.08
11352.0,1.42,0.98
11354.0,1.29,0.99
11356.0,1.25,1.1
11358.0,1.3,1.11
11360.0,1.4,1.08
11362.0,1.45,1.16
11364.0,1.45,1.19
11366.0,1.47,1.22
11367.0,1.39,1.21
11369.0,1.37,1.27
11371.0,1.25,1.18
11373.0,1.19,1.17
11375.0,1.23,1.24
11377.0,1.27,1.31
11379.0,1.35,1.32
11381.0,1.47,1.37
11384.0,1.5,1.33
11386.0,1.52,1.32
11388.0,1.55,1.43
11390.0,1.5,1.44
11392.0,1.45,1.35
11394.0,1.3,1.35
11396.0,1.32,1.39
11398.0,1.32,1.36
11400.0,1.4,1.32
11402.0,1.49,1.35
11404.0,1.5,1.26
11406.0,1.52,1.28
11408.0,1.53,1.39
11409.0,1.47,1.32
11411.0,1.38,1.21
11413.0,1.26,1.22
11415.0,1.27,1.38
11417.0,1.33,1.45
11419.0,1.45,1.65
11421.0,1.53,1.85
11423.0,1.56,1.48
11426.0,1.6,1.38
11428.0,1.56,1.34
11430.0,1.49,1.27
11432.0,1.43,1.15
11434.0,1.28,1.14
11436.0,1.3,1.24
11438.0,1.3,1.28
11440.0,1.45,1.29
11442.0,1.49,1.19
11444.0,1.55,1.0
11446.0,1.6,1.41
11448.0,1.55,2.01
11450.0,1.5,2.23
11452.0,1.45,2.16
11453.0,1.32,1.94
11455.0,1.3,1.87
11457.0,1.32,1.89
11459.0,1.46,1.82
11461.0,1.6,1.72
11463.0,1.6,1.65
11465.0,1.65,1.6
11467.0,1.54,1.4
11470.0,1.49,1.4
11472.0,1.45,1.55
11474.0,1.31,1.55
11476.0,1.28,1.45
11478.0,1.33,1.38
11480.0,1.43,1.38
11482.0,1.53,1.21
11484.0,1.55,0.98
11486.0,1.61,0.98
11488.0,1.52,0.94
11490.0,1.45,0.97
11492.0,1.38,0.97
11494.0,1.3,0.89
11495.0,1.3,0.89
11497.0,1.38,0.94
11499.0,1.45,0.83
11501.0,1.57,0.76
11503.0,1.58,0.78
11505.0,1.61,1.01
11507.0,1.55,1.09
11509.0,1.51,1.1
11512.0,1.44,0.98
11514.0,1.32,0.78
11516.0,1.35,0.75
11518.0,1.36,0.78
11520.0,1.49,0.79
11522.0,1.57,0.67
11524.0,1.57,0.44
11526.0,1.58,0.35
11528.0,1.54,0.4
11530.0,1.45,0.47
11532.0,1.36,0.58
11534.0,1.22,0.89
11536.0,1.2,0.96
11537.0,1.27,1.14
11539.0,1.36,1.04
11541.0,1.45,0.79
11543.0,1.49,0.69
11545.0,1.53,0.64
11547.0,1.47,0.61
11549.0,1.37,0.68
11551.0,1.23,0.53
11554.0,1.08,0.43
11556.0,1.1,0.55
11558.0,1.14,0.57
11560.0,1.2,0.58
11562.0,1.28,0.6
11564.0,1.27,0.64
11566.0,1.33,0.86
11568.0,1.28,1.02
11570.0,1.19,0.9
11572.0,1.13,0.9
11574.0,1.03,0.93
11576.0,1.04,1.14
11578.0,1.05,1.31
11580.0,1.11,1.39
11581.0,1.2,1.4
11583.0,1.24,1.4
11585.0,1.26,1.23
11587.0,1.19,1.34
11589.0,1.16,1.61
11591.0,1.15,1.54
11593.0,1.02,1.53
11595.0,1.01,1.81
11598.0,1.08,1.99
11600.0,1.22,2.01
11602.0,1.34,1.92
11604.0,1.34,1.87
11606.0,1.37,1.97
11608.0,1.33,1.82
11610.0,1.32,1.75
11612.0,1.3,1.91
11614.0,1.18,2.04
11616.0,1.19,2.15
11618.0,1.29,2.21
11620.0,1.44,2.22
11622.0,1.59,2.23
11623.0,1.6,2.17
11625.0,1.61,2.21
11627.0,1.61,2.24
11629.0,1.6,2.33
11631.0,1.52,2.21
11633.0,1.39,2.09
11635.0,1.4,2.15
11637.0,1.41,2.23
11640.0,1.53,2.15
11642.0,1.65,2.25
11644.0,1.65,2.26
11646.0,1.65,2.22
11648.0,1.7,2.24
11650.0,1.65,2.21
11652.0,1.51,2.04
11654.0,1.41,2.06
11656.0,1.45,2.18
11658.0,1.47,2.17
11660.0,1.57,2.03
11662.0,1.65,1.89
11664.0,1.65,1.75
11665.0,1.65,1.67
11667.0,1.64,1.5
11669.0,1.58,1.56
11671.0,1.52,1.47
11673.0,1.43,1.34
11675.0,1.44,1.32
11677.0,1.46,1.29
11679.0,1.6,1.34
11682.0,1.73,1.44
11684.0,1.7,1.41
11686.0,1.7,1.29
11688.0,1.7,1.37
11690.0,1.63,1.42
11692.0,1.49,1.44
11694.0,1.37,1.38
11696.0,1.35,1.37
11698.0,1.41,1.3
11700.0,1.47,1.34
11702.0,1.59,1.45
11704.0,1.58,1.38
11706.0,1.61,1.38
11708.0,1.58,1.47
11709.0,1.49,1.35
11711.0,1.4,1.38
11713.0,1.29,1.4
11715.0,1.27,1.35
11717.0,1.35,1.41
11719.0,1.46,1.33
11721.0,1.53,1.23
11723.0,1.5,1.23
11726.0,1.52,1.34
11728.0,1.46,1.17
11730.0,1.44,1.01
11732.0,1.38,1.06
11734.0,1.3,1.14
11736.0,1.33,1.02
11738.0,1.38,0.93
11740.0,1.48,0.87
11742.0,1.62,0.7
11744.0,1.72,0.65
11746.0,1.82,0.76
11748.0,1.85,0.73
11750.0,1.76,0.55
11751.0,1.7,0.43
11753.0,1.59,0.4
11755.0,1.6,0.42
11757.0,1.65,0.41
11759.0,1.78,0.38
11761.0,1.86,0.18
11763.0,1.92,0.02
11765.0,1.94,0.0
11768.0,1.84,0.04
11770.0,1.79,0.0
11772.0,1.72,0.08
11774.0,1.61,0.0
11776.0,1.68,0.0
11778.0,1.75,0.0
11780.0,1.84,0.03
11782.0,1.87,0.03
11784.0,1.9,0.05
11786.0,1.88,0.05
11788.0,1.82,0.0
11790.0,1.77,0.0
11792.0,1.76,0.0
11793.0,1.66,0.0
11795.0,1.72,0.0
11797.0,1.8,0.0
11799.0,1.88,0.0
11801.0,1.94,0.0
11803.0,1.98,0.0
11805.0,2.07,0.0
11807.0,1.98,0.0
11810.0,1.9,0.09
11812.0,1.76,0.18
11814.0,1.63,0.07
11816.0,1.6,0.12
11818.0,1.64,0.34
11820.0,1.69,0.48
11822.0,1.73,0.52
11824.0,1.73,0.54
11826.0,1.73,0.67
11828.0,1.7,0.78
11830.0,1.61,0.87
11832.0,1.52,0.94
11834.0,1.4,1.03
11836.0,1.38,1.19
11837.0,1.42,1.36
11839.0,1.48,1.45
11841.0,1.6,1.5
11843.0,1.61,1.47
11845.0,1.61,1.58
11847.0,1.56,1.72
11849.0,1.52,1.77
11851.0,1.41,1.71
11854.0,1.26,1.75
11856.0,1.29,1.93
11858.0,1.28,1.99
11860.0,1.35,2.11
11862.0,1.44,2.25
11864.0,1.41,2.19
11866.0,1.42,2.23
11868.0,1.43,2.29
11870.0,1.39,2.31
11872.0,1.28,2.32
11874.0,1.16,2.34
11876.0,1.19,2.39
11878.0,1.27,2.38
11879.0,1.42,2.45
11881.0,1.51,2.47
11883.0,1.52,2.4
11885.0,1.51,2.42
11887.0,1.48,2.41
11889.0,1.39,2.59
11891.0,1.27,2.53
11893.0,1.19,2.39
11896.0,1.21,2.38
11898.0,1.26,2.38
11900.0,1.34,2.31
11902.0,1.46,2.26
11904.0,1.46,2.18
11906.0,1.49,2.27
11908.0,1.46,2.2
11910.0,1.37,2.14
11912.0,1.33,2.25
11914.0,1.24,2.27
11916.0,1.22,2.29
11918.0,1.24,2.27
11920.0,1.33,2.3
11922.0,1.4,2.28
11923.0,1.45,2.23
11925.0,1.49,2.24
11927.0,1.45,2.2
11929.0,1.35,2.21
11931.0,1.3,2.28
11933.0,1.18,2.18
11935.0,1.15,2.17
11938.0,1.18,2.2
11940.0,1.3,2.25
11942.0,1.38,2.26
11944.0,1.43,2.3
11946.0,1.49,2.35
11948.0,1.43,2.51
11950.0,1.34,2.66
11952.0,1.29,2.69
11954.0,1.16,2.65
11956.0,1.21,2.74
11958.0,1.3,2.7
11960.0,1.34,2.52
11962.0,1.44,2.38
11964.0,1.46,2.1
11965.0,1.46,2.04
11967.0,1.44,2.1
11969.0,1.36,2.14
11971.0,1.3,2.15
11973.0,1.21,2.05
11975.0,1.21,2.01
11977.0,1.33,2.07
11979.0,1.42,2.07
11982.0,1.47,2.01
11984.0,1.5,1.91
11986.0,1.52,1.88
11988.0,1.43,1.96
11990.0,1.34,1.94
11992.0,1.26,1.95
11994.0,1.18,1.99
11996.0,1.19,1.92
11998.0,1.28,1.92
12000.0,1.4,1.99
12002.0,1.49,1.92
12004.0,1.52,1.85
12006.0,1.54,1.77
12007.0,1.52,1.64
12009.0,1.46,1.7
12011.0,1.37,1.7
12013.0,1.27,1.61
12015.0,1.27,1.65
12017.0,1.31,1.85
12019.0,1.41,1.88
12021.0,1.57,1.76
12024.0,1.61,1.83
12026.0,1.64,1.85
12028.0,1.58,1.72
12030.0,1.53,1.78
12032.0,1.4,1.71
12034.0,1.3,1.75
12036.0,1.34,1.94
12038.0,1.35,1.94
12040.0,1.39,1.87
12042.0,1.47,1.82
12044.0,1.51,1.79
12046.0,1.55,1.71
12048.0,1.48,1.68
12050.0,1.42,1.68
12051.0,1.36,1.64
12053.0,1.27,1.6
12055.0,1.3,1.66
12057.0,1.36,1.69
12059.0,1.42,1.69
12061.0,1.48,1.68
12063.0,1.49,1.59
12066.0,1.5,1.59
12068.0,1.46,1.6
12070.0,1.4,1.59
12072.0,1.29,1.59
12074.0,1.21,1.54
12076.0,1.22,1.56
12078.0,1.25,1.55
12080.0,1.36,1.47
12082.0,1.52,1.52
12084.0,1.51,1.47
12086.0,1.5,1.43
12088.0,1.45,1.47
12090.0,1.38,1.62
12092.0,1.32,1.59
12093.0,1.23,1.47
12095.0,1.21,1.46
12097.0,1.25,1.39
12099.0,1.37,1.36
12101.0,1.46,1.38
12103.0,1.5,1.33
12105.0,1.55,1.2
12107.0,1.54,1.15
12110.0,1.45,1.15
12112.0,1.38,1.19
12114.0,1.25,1.13
12116.0,1.26,1.1
12118.0,1.34,1.09
12120.0,1.45,1.05
12122.0,1.57,1.09
12124.0,1.56,1.12
12126.0,1.53,1.05
12128.0,1.47,1.07
12130.0,1.39,1.08
12132.0,1.28,0.97
12134.0,1.16,0.91
12135.0,1.14,1.08
12137.0,1.23,1.15
12139.0,1.34,1.19
12141.0,1.44,1.14
12143.0,1.49,1.19
12145.0,1.51,1.21
12147.0,1.55,1.22
12149.0,1.46,1.17
12152.0,1.38,1.32
12154.0,1.25,1.37
12156.0,1.26,1.49
12158.0,1.34,1.52
12160.0,1.39,1.45
12162.0,1.5,1.46
12164.0,1.51,1.43
12166.0,1.51,1.46
12168.0,1.51,1.39
12170.0,1.46,1.44
12172.0,1.38,1.51
12174.0,1.31,1.55
12176.0,1.27,1.59
12178.0,1.34,1.55
12179.0,1.45,1.48
12181.0,1.53,1.45
12183.0,1.55,1.46
12185.0,1.6,1.53
12187.0,1.54,1.52
12189.0,1.41,1.47
12191.0,1.33,1.36
12194.0,1.22,1.42
12196.0,1.22,1.64
12198.0,1.3,1.68
12200.0,1.39,1.65
12202.0,1.47,1.62
12204.0,1.5,1.6
12206.0,1.55,1.64
12208.0,1.48,1.59
12210.0,1.43,1.6
12212.0,1.33,1.53
12214.0,1.23,1.4
12216.0,1.23,1.36
12218.0,1.33,1.41
12220.0,1.41,1.4
12221.0,1.52,1.41
12223.0,1.6,1.35
12225.0,1.64,1.32
12227.0,1.56,1.3
12229.0,1.52,1.2
12231.0,1.42,1.13
12233.0,1.31,1.21
12235.0,1.32,1.4
12238.0,1.39,1.39
12240.0,1.47,1.32
12242.0,1.58,1.26
12244.0,1.63,1.24
12246.0,1.63,1.28
12248.0,1.56,1.23
12250.0,1.53,1.24
12252.0,1.46,1.17
12254.0,1.37,1.16
12256.0,1.43,1.18
12258.0,1.49,1.23
12260.0,1.56,1.28
12262.0,1.65,1.21
12263.0,1.67,1.15
12265.0,1.7,1.24
12267.0,1.65,1.33
12269.0,1.57,1.28
12271.0,1.46,1.34
12273.0,1.37,1.4
12275.0,1.36,1.44
12277.0,1.44,1.53
12280.0,1.54,1.56
12282.0,1.62,1.52
12284.0,1.66,1.53
12286.0,1.69,1.54
12288.0,1.6,1.51
12290.0,1.61,1.44
12292.0,1.49,1.38
12294.0,1.37,1.42
12296.0,1.35,1.42
12298.0,1.4,1.42
12300.0,1.46,1.41
12302.0,1.58,1.49
12304.0,1.57,1.49
12306.0,1.62,1.54
12307.0,1.58,1.54
12309.0,1.49,1.48
12311.0,1.36,1.4
12313.0,1.26,1.46
12315.0,1.29,1.53
12317.0,1.36,1.43
12319.0,1.43,1.36
12322.0,1.57,1.44
12324.0,1.6,1.49
12326.0,1.6,1.49
12328.0,1.55,1.43
12330.0,1.52,1.4
12332.0,1.42,1.35
12334.0,1.28,1.37
12336.0,1.34,1.53
12338.0,1.34,1.53
12340.0,1.38,1.55
12342.0,1.51,1.62
12344.0,1.54,1.59
12346.0,1.54,1.59
12348.0,1.48,1.6
12349.0,1.43,1.58
12351.0,1.31,1.54
12353.0,1.21,1.51
12355.0,1.25,1.56
12357.0,1.32,1.62
12359.0,1.38,1.73
12361.0,1.53,1.69
12363.0,1.58,1.65
12366.0,1.55,1.59
12368.0,1.52,1.64
12370.0,1.46,1.71
12372.0,1.34,1.69
12374.0,1.3,1.64
12376.0,1.32,1.65
12378.0,1.38,1.72
12380.0,1.48,1.72
12382.0,1.59,1.69
12384.0,1.62,1.59
12386.0,1.63,1.55
12388.0,1.58,1.65
12390.0,1.47,1.78
12391.0,1.36,1.83
12393.0,1.25,1.71
12395.0,1.22,1.67
12397.0,1.29,1.67
12399.0,1.41,1.66
12401.0,1.53,1.61
12403.0,1.58,1.56
12405.0,1.59,1.49
12408.0,1.55,1.46
12410.0,1.48,1.43
12412.0,1.45,1.43
12414.0,1.37,1.31
12416.0,1.38,1.35
12418.0,1.42,1.45
12420.0,1.54,1.44
12422.0,1.59,1.29
12424.0,1.6,1.22
12426.0,1.57,1.23
12428.0,1.48,1.21
12430.0,1.38,1.22
12432.0,1.3,1.25
12434.0,1.23,1.76
12435.0,1.24,2.39
12437.0,1.31,2.71
12439.0,1.43,2.81
12441.0,1.48,2.64
12443.0,1.5,2.44
12445.0,1.55,2.44
12447.0,1.49,2.42
12450.0,1.41,2.34
12452.0,1.32,2.16
12454.0,1.25,2.1
12456.0,1.21,2.12
12458.0,1.29,2.13
12460.0,1.43,2.06
12462.0,1.51,1.92
12464.0,1.52,1.83
12466.0,1.55,1.82
12468.0,1.51,1.71
12470.0,1.42,1.65
12472.0,1.37,1.64
12474.0,1.3,1.58
12476.0,1.3,1.55
12477.0,1.37,1.55
12479.0,1.45,1.55
12481.0,1.52,1.43
12483.0,1.53,1.36
12485.0,1.58,1.4
12487.0,1.5,1.25
12489.0,1.46,1.22
12491.0,1.39,1.31
12494.0,1.31,1.34
12496.0,1.26,1.2
12498.0,1.33,1.16
12500.0,1.42,1.04
12502.0,1.51,0.96
12504.0,1.56,0.9
12506.0,1.57,0.99
12508.0,1.53,0.95
12510.0,1.51,0.97
12512.0,1.37,0.89
12514.0,1.28,0.89
12516.0,1.3,1.03
12518.0,1.37,1.13
12519.0,1.43,1.18
12521.0,1.53,1.19
12523.0,1.61,1.1
12525.0,1.6,1.09
12527.0,1.54,1.17
12529.0,1.49,1.39
12531.0,1.37,1.33
12533.0,1.27,1.39
12536.0,1.3,1.43
12538.0,1.3,1.44
12540.0,1.38,1.45
12542.0,1.47,1.5
12544.0,1.46,1.48
12546.0,1.45,1.41
12548.0,1.36,1.38
12550.0,1.37,1.41
12552.0,1.27,1.35
12554.0,1.17,1.3
12556.0,1.18,1.38
12558.0,1.24,1.32
12560.0,1.31,1.33
12562.0,1.37,1.51
12563.0,1.35,1.49
12565.0,1.33,1.44
12567.0,1.28,1.32
12569.0,1.22,1.33
12571.0,1.08,1.34
12573.0,0.97,1.53
12575.0,0.95,1.64
12578.0,1.0,1.67
12580.0,1.13,1.84
12582.0,1.19,1.89
12584.0,1.18,1.85
12586.0,1.17,1.76
12588.0,1.11,1.93
12590.0,1.03,1.94
12592.0,0.9,2.05
12594.0,0.84,2.07
12596.0,0.83,2.03
12598.0,0.91,2.04
12600.0,1.01,2.09
12602.0,1.15,2.05
12604.0,1.17,2.07
12605.0,1.18,2.41
12607.0,1.18,2.56
12609.0,1.15,2.59
12611.0,1.07,2.62
12613.0,1.04,2.68
12615.0,1.03,2.69
12617.0,1.1,2.63
12619.0,1.24,2.57
12622.0,1.38,2.61
12624.0,1.44,2.64
12626.0,1.51,2.68
12628.0,1.48,2.54
12630.0,1.45,2.38
12632.0,1.36,2.36
12634.0,1.29,2.43
12636.0,1.34,2.45
12638.0,1.38,2.43
12640.0,1.47,2.36
12642.0,1.56,2.21
12644.0,1.63,2.1
12646.0,1.67,2.15
12647.0,1.59,2.17
12649.0,1.57,2.1
12651.0,1.51,2.03
12653.0,1.44,2.04
12655.0,1.42,2.05
12657.0,1.51,1.99
12659.0,1.6,1.97
12661.0,1.65,1.98
12664.0,1.68,1.85
12666.0,1.74,1.84
12668.0,1.67,1.86
12670.0,1.58,1.85
12672.0,1.52,1.78
12674.0,1.43,1.54
12676.0,1.45,1.43
12678.0,1.51,1.43
12680.0,1.62,1.41
12682.0,1.67,1.35
12684.0,1.68,1.2
12686.0,1.67,1.16
12688.0,1.58,1.08
12690.0,1.53,1.15
12691.0,1.47,1.14
12693.0,1.41,1.01
12695.0,1.42,0.9
12697.0,1.47,0.8
12699.0,1.56,0.77
12701.0,1.63,0.74
12703.0,1.67,0.7
12706.0,1.69,0.63
12708.0,1.65,0.59
12710.0,1.56,0.48
12712.0,1.49,0.32
12714.0,1.41,0.28
12716.0,1.37,0.36
12718.0,1.41,0.37
12720.0,1.52,0.41
12722.0,1.63,0.38
12724.0,1.65,0.3
12726.0,1.65,0.26
12728.0,1.64,0.21
12730.0,1.61,0.23
12732.0,1.53,0.19
12733.0,1.48,0.16
12735.0,1.52,0.19
12737.0,1.58,0.09
12739.0,1.62,0.15
12741.0,1.73,0.22
12743.0,1.79,0.1
12745.0,1.71,0.0
12747.0,1.65,0.05
12750.0,1.62,0.0
12752.0,1.54,0.0
12754.0,1.49,0.0
12756.0,1.51,0.0
12758.0,1.54,0.0
12760.0,1.65,0.0
12762.0,1.75,0.0
12764.0,1.74,0.0
12766.0,1.72,0.0
12768.0,1.7,0.0
12770.0,1.65,0.0
12772.0,1.51,0.0
12774.0,1.41,0.0
12775.0,1.41,0.0
12777.0,1.44,0.0
12779.0,1.54,0.0
12781.0,1.65,0.0
12783.0,1.65,0.0
12785.0,1.61,0.0
12787.0,1.59,0.0
12789.0,1.59,0.0
12792.0,1.52,0.0
12794.0,1.44,0.0
12796.0,1.45,0.15
12798.0,1.52,0.3
12800.0,1.65,0.36
12802.0,1.71,0.37
12804.0,1.75,0.47
12806.0,1.79,0.51
12808.0,1.73,0.55
12810.0,1.73,0.55
12812.0,1.62,0.48
12814.0,1.55,0.49
12816.0,1.6,0.56
12818.0,1.63,0.6
12819.0,1.7,0.67
12821.0,1.79,0.69
12823.0,1.8,0.73
12825.0,1.8,0.85
12827.0,1.77,0.83
12829.0,1.74,0.89
12831.0,1.66,0.9
12834.0,1.58,0.96
12836.0,1.56,1.04
12838.0,1.61,1.15
12840.0,1.74,1.14
12842.0,1.78,0.98
12844.0,1.77,1.05
12846.0,1.81,1.15
12848.0,1.74,1.15
12850.0,1.68,1.26
12852.0,1.57,1.34
12854.0,1.49,1.42
12856.0,1.48,1.4
12858.0,1.57,1.5
12860.0,1.72,1.59
12861.0,1.73,1.58
12863.0,1.73,1.57
12865.0,1.71,1.62
12867.0,1.66,1.62
12869.0,1.61,1.64
12871.0,1.47,1.5
12873.0,1.41,1.47
12875.0,1.42,1.56
12878.0,1.51,1.62
12880.0,1.63,1.59
12882.0,1.68,1.54
12884.0,1.66,1.54
12886.0,1.66,1.61
12888.0,1.62,1.74
12890.0,1.48,1.74
12892.0,1.38,1.76
12894.0,1.33,1.94
12896.0,1.32,2.04
12898.0,1.4,2.14
12900.0,1.45,2.21
12902.0,1.52,2.15
12904.0,1.55,2.06
12905.0,1.53,2.16
12907.0,1.46,2.23
12909.0,1.39,2.24
12911.0,1.3,2.19
12913.0,1.22,2.09
12915.0,1.27,2.13
12917.0,1.31,2.29
12920.0,1.4,2.38
12922.0,1.46,2.31
12924.0,1.48,2.33
12926.0,1.49,2.28
12928.0,1.43,2.31
12930.0,1.38,2.35
12932.0,1.27,2.32
12934.0,1.24,2.36
12936.0,1.22,2.37
12938.0,1.25,2.38
12940.0,1.3,2.3
12942.0,1.39,2.25
12944.0,1.41,2.21
12946.0,1.43,2.13
12947.0,1.37,2.09
12949.0,1.37,2.15
12951.0,1.24,2.25
12953.0,1.17,2.24
12955.0,1.15,2.26
12957.0,1.26,2.39
12959.0,1.37,2.32
12962.0,1.44,2.13
12964.0,1.47,2.08
12966.0,1.5,2.09
12968.0,1.45,2.09
12970.0,1.4,2.05
12972.0,1.26,2.04
12974.0,1.21,1.94
12976.0,1.22,1.87
12978.0,1.31,1.89
12980.0,1.44,1.86
12982.0,1.54,1.72
12984.0,1.56,1.73
12986.0,1.58,1.83
12988.0,1.48,1.75
12989.0,1.41,1.64
12991.0,1.31,1.52
12993.0,1.22,1.48
12995.0,1.2,1.48
12997.0,1.27,1.5
12999.0,1.38,1.6
13001.0,1.47,1.55
13003.0,1.51,1.58
13006.0,1.49,1.61
13008.0,1.45,1.6
13010.0,1.41,1.53
13012.0,1.25,1.5
13014.0,1.19,1.63
13016.0,1.21,1.69
13018.0,1.26,1.71
13020.0,1.36,1.53
13022.0,1.43,1.43
13024.0,1.46,1.44
13026.0,1.44,1.45
13028.0,1.42,1.42
13030.0,1.38,1.42
13032.0,1.29,1.48
13033.0,1.27,1.5
13035.0,1.28,1.51
13037.0,1.32,1.51
13039.0,1.42,1.45
13041.0,1.54,1.44
13043.0,1.55,1.48
13045.0,1.5,1.48
13048.0,1.45,1.47
13050.0,1.46,1.52
13052.0,1.39,1.46
13054.0,1.36,1.44
13056.0,1.4,1.47
13058.0,1.39,1.42
13060.0,1.53,1.46
13062.0,1.58,1.38
13064.0,1.65,1.39
13066.0,1.64,1.41
13068.0,1.62,1.42
13070.0,1.5,1.46
13072.0,1.41,1.49
13074.0,1.35,1.52
13075.0,1.39,1.61
13077.0,1.46,1.62
13079.0,1.59,1.66
13081.0,1.65,1.59
13083.0,1.68,1.55
13085.0,1.67,1.63
13087.0,1.63,1.73
13090.0,1.58,1.7
13092.0,1.49,1.6
13094.0,1.4,1.52
13096.0,1.39,1.49
13098.0,1.45,1.52
13100.0,1.58,1.6
13102.0,1.64,1.49
13104.0,1.65,1.38
13106.0,1.66,1.33
13108.0,1.59,1.22
13110.0,1.53,1.25
13112.0,1.42,1.29
13114.0,1.37,1.33
13116.0,1.34,1.42
13117.0,1.37,1.39
13119.0,1.49,1.35
13121.0,1.55,1.33
13123.0,1.6,1.34
13125.0,1.6,1.48
13127.0,1.58,1.52
13129.0,1.51,1.45
13131.0,1.42,1.45
13134.0,1.38,1.51
13136.0,1.35,1.58
13138.0,1.42,1.62
13140.0,1.52,1.62
13142.0,1.62,1.56
13144.0,1.66,1.54
13146.0,1.68,1.61
13148.0,1.64,1.63
13150.0,1.6,1.62
13152.0,1.49,1.56
13154.0,1.4,1.51
13156.0,1.37,1.54
13158.0,1.47,1.63
13160.0,1.52,1.68
13161.0,1.58,1.7
13163.0,1.6,1.68
13165.0,1.57,1.55
13167.0,1.51,1.5
13169.0,1.48,1.46
13171.0,1.37,1.46
13173.0,1.32,1.51
13176.0,1.37,1.55
13178.0,1.44,1.47
13180.0,1.54,1.45
13182.0,1.59,1.46
13184.0,1.58,1.46
13186.0,1.59,1.43
13188.0,1.53,1.36
13190.0,1.48,1.42
13192.0,1.37,1.42
13194.0,1.3,1.42
13196.0,1.3,1.44
13198.0,1.37,1.46
13200.0,1.47,1.49
13202.0,1.5,1.46
13203.0,1.5,1.57
13205.0,1.48,1.71
13207.0,1.43,1.63
13209.0,1.37,1.55
13211.0,1.25,1.45
13213.0,1.19,1.55
13215.0,1.18,1.64
13218.0,1.22,1.69
13220.0,1.26,1.6
13222.0,1.37,1.6
13224.0,1.41,1.57
13226.0,1.4,1.55
13228.0,1.4,1.62
13230.0,1.35,1.56
13232.0,1.22,1.47
13234.0,1.18,1.42
13236.0,1.25,1.45
13238.0,1.3,1.47
13240.0,1.4,1.53
13242.0,1.44,1.43
13244.0,1.47,1.44
13246.0,1.48,1.57
13247.0,1.44,1.58
13249.0,1.41,1.58
13251.0,1.3,1.52
13253.0,1.21,1.5
13255.0,1.2,1.54
13257.0,1.28,1.55
13259.0,1.39,1.48
13262.0,1.47,1.44
13264.0,1.49,1.43
13266.0,1.46,1.42
13268.0,1.45,1.5
13270.0,1.34,1.45
13272.0,1.25,1.34
13274.0,1.17,1.32
13276.0,1.22,1.4
13278.0,1.3,1.4
13280.0,1.43,1.44
13282.0,1.5,1.43
13284.0,1.55,1.4
13286.0,1.59,1.44
13288.0,1.55,1.38
13289.0,1.46,1.24
13291.0,1.37,1.25
13293.0,1.33,1.24
13295.0,1.33,1.31
13297.0,1.42,1.33
13299.0,1.55,1.32
13301.0,1.65,1.25
13304.0,1.67,1.26
13306.0,1.67,1.34
13308.0,1.65,1.35
13310.0,1.55,1.4
13312.0,1.41,1.42
13314.0,1.35,1.35
13316.0,1.37,1.38
13318.0,1.4,1.45
13320.0,1.5,1.52
13322.0,1.56,1.41
13324.0,1.61,1.41
13326.0,1.62,1.44
13328.0,1.57,1.49
13330.0,1.49,1.37
13331.0,1.4,1.36
13333.0,1.38,1.37
13335.0,1.38,1.41
13337.0,1.39,1.4
13339.0,1.44,1.4
13341.0,1.49,1.3
13343.0,1.51,1.32
13346.0,1.52,1.43
13348.0,1.51,1.5
13350.0,1.44,1.45
13352.0,1.29,1.47
13354.0,1.24,1.44
13356.0,1.28,1.48
13358.0,1.35,1.49
13360.0,1.52,1.61
13362.0,1.55,1.5
13364.0,1.62,1.44
13366.0,1.63,1.55
13368.0,1.55,1.56
13370.0,1.44,1.5
13372.0,1.32,1.46
13374.0,1.25,1.51
13375.0,1.27,1.53
13377.0,1.37,1.55
13379.0,1.46,1.53
13381.0,1.51,1.49
13383.0,1.55,1.47
13385.0,1.54,1.45
13387.0,1.5,1.4
13390.0,1.45,1.45
13392.0,1.38,1.43
13394.0,1.33,1.33
13396.0,1.32,1.33
13398.0,1.4,1.41
13400.0,1.53,1.37
13402.0,1.61,1.3
13404.0,1.65,1.34
13406.0,1.65,1.38
13408.0,1.57,1.35
13410.0,1.51,1.32
13412.0,1.42,1.31
13414.0,1.36,1.36
13416.0,1.34,1.4
13417.0,1.38,1.39
13419.0,1.48,1.34
13421.0,1.55,1.35
13423.0,1.6,1.4
13425.0,1.54,1.39
13427.0,1.48,1.39
13429.0,1.45,1.47
13432.0,1.31,1.5
13434.0,1.28,1.52
13436.0,1.29,1.51
13438.0,1.35,1.4
13440.0,1.42,1.34
13442.0,1.51,1.32
13444.0,1.57,2.05
13446.0,1.52,2.82
13448.0,1.49,3.17
13450.0,1.46,3.24
13452.0,1.35,3.08
13454.0,1.28,2.94
13456.0,1.3,2.85
13458.0,1.37,2.82
13459.0,1.46,2.75
13461.0,1.49,2.57
13463.0,1.51,2.48
13465.0,1.47,2.4
13467.0,1.42,2.32
13469.0,1.34,2.18
13471.0,1.23,2.15
13474.0,1.23,2.07
13476.0,1.3,2.03
13478.0,1.36,1.87
13480.0,1.45,1.68
13482.0,1.52,1.58
13484.0,1.58,1.58
13486.0,1.57,1.48
13488.0,1.51,1.51
13490.0,1.44,1.52
13492.0,1.29,1.39
13494.0,1.25,1.47
13496.0,1.25,1.53
13498.0,1.36,1.57
13500.0,1.46,1.59
13502.0,1.51,1.41
13503.0,1.55,1.33
13505.0,1.49,1.29
13507.0,1.44,1.24
13509.0,1.39,1.19
13511.0,1.3,1.09
13513.0,1.22,0.92
13515.0,1.25,0.87
13518.0,1.33,0.75
13520.0,1.45,0.62
13522.0,1.51,0.5
13524.0,1.54,0.49
13526.0,1.51,0.54
13528.0,1.46,0.58
13530.0,1.41,0.63
13532.0,1.33,0.71
13534.0,1.29,0.76
13536.0,1.28,0.85
13538.0,1.36,0.83
13540.0,1.46,0.84
13542.0,1.53,0.81
13544.0,1.56,0.88
13545.0,1.56,0.91
13547.0,1.51,0.95
13549.0,1.42,0.94
13551.0,1.32,0.96
13553.0,1.28,1.1
13555.0,1.25,1.44
13557.0,1.38,1.53
13560.0,1.48,1.53
13562.0,1.49,1.5
13564.0,1.53,1.46
13566.0,1.52,1.46
13568.0,1.45,1.45
13570.0,1.36,1.46
13572.0,1.26,1.36
13574.0,1.24,1.37
13576.0,1.27,1.57
13578.0,1.36,1.52
13580.0,1.45,1.42
13582.0,1.52,1.32
13584.0,1.54,1.25
13586.0,1.54,1.36
13587.0,1.44,1.38
13589.0,1.37,1.42
13591.0,1.29,1.48
13593.0,1.26,1.61
13595.0,1.24,1.62
13597.0,1.31,1.6
13599.0,1.41,1.54
13602.0,1.53,1.45
13604.0,1.51,1.36
13606.0,1.53,1.44
13608.0,1.47,1.37
13610.0,1.42,1.3
13612.0,1.27,1.28
13614.0,1.17,1.39
13616.0,1.16,1.44
13618.0,1.22,1.43
13620.0,1.29,1.48
13622.0,1.31,1.48
13624.0,1.29,1.52
13626.0,1.31,1.55
13628.0,1.25,1.5
13630.0,1.19,1.5
13631.0,1.04,1.52
13633.0,0.99,1.64
13635.0,0.98,1.79
13637.0,1.04,1.84
13639.0,1.14,1.87
13641.0,1.23,1.83
13643.0,1.26,1.86
13646.0,1.24,1.86
13648.0,1.2,1.9
13650.0,1.15,2.03
13652.0,0.99,2.06
13654.0,0.98,2.11
13656.0,1.0,2.22
13658.0,1.13,2.26
13660.0,1.21,2.36
13662.0,1.27,2.34
13664.0,1.34,2.27
13666.0,1.32,2.27
13668.0,1.25,2.18
13670.0,1.19,2.09
13672.0,1.07,2.13
13673.0,1.05,2.2
13675.0,1.09,2.29
13677.0,1.18,2.45
13679.0,1.25,2.47
13681.0,1.34,2.44
13683.0,1.39,2.39
13685.0,1.38,2.5
13688.0,1.34,2.57
13690.0,1.36,2.56
13692.0,1.22,2.47
13694.0,1.22,2.49
13696.0,1.24,2.52
13698.0,1.28,2.42
13700.0,1.37,2.45
13702.0,1.47,2.44
13704.0,1.53,2.54
13706.0,1.5,2.43
13708.0,1.44,2.27
13710.0,1.41,2.15
13712.0,1.32,1.99
13714.0,1.29,1.95
13715.0,1.3,2.02
13717.0,1.42,1.98
13719.0,1.5,1.98
13721.0,1.59,1.96
13723.0,1.63,1.89
13725.0,1.59,1.82
13727.0,1.58,1.88
13730.0,1.52,1.87
13732.0,1.45,1.76
13734.0,1.4,1.66
13736.0,1.42,1.64
13738.0,1.5,1.63
13740.0,1.64,1.58
13742.0,1.73,1.4
13744.0,1.8,1.36
13746.0,1.74,1.27
13748.0,1.71,1.32
13750.0,1.64,1.42
13752.0,1.53,1.31
13754.0,1.49,1.37
13756.0,1.51,1.49
13758.0,1.57,1.44
13759.0,1.7,1.38
13761.0,1.73,1.26
13763.0,1.74,1.22
13765.0,1.7,1.16
13767.0,1.68,1.12
13769.0,1.6,1.06
13771.0,1.52,1.04
13774.0,1.46,0.96
13776.0,1.5,0.94
13778.0,1.54,0.94
13780.0,1.68,0.92
13782.0,1.73,0.85
13784.0,1.78,0.78
13786.0,1.78,0.67
13788.0,1.77,0.63
13790.0,1.7,0.55
13792.0,1.58,0.44
13794.0,1.53,0.47
13796.0,1.55,0.57
13798.0,1.62,0.46
13800.0,1.71,0.41
13801.0,1.78,0.24
13803.0,1.88,0.22
13805.0,1.84,0.29
13807.0,1.76,0.22
13809.0,1.72,0.2
13811.0,1.59,0.08
13813.0,1.54,0.0
13816.0,1.55,0.1
13818.0,1.62,0.13
13820.0,1.71,0.03
13822.0,1.75,0.0
13824.0,1.78,0.0
13826.0,1.8,0.0
13828.0,1.79,0.0
13830.0,1.81,0.0
13832.0,1.72,0.0
13834.0,1.68,0.0
13836.0,1.69,0.0
13838.0,1.76,0.0
13840.0,1.88,0.0
13842.0,1.94,0.0
13843.0,1.96,0.0
13845.0,2.0,0.0
13847.0,1.88,0.0
13849.0,1.79,0.0
13851.0,1.67,0.0
13853.0,1.63,0.0
13855.0,1.59,0.0
13858.0,1.65,0.0
13860.0,1.7,0.0
13862.0,1.74,0.0
13864.0,1.76,0.0
13866.0,1.77,0.0
13868.0,1.7,0.0
13870.0,1.65,0.0
13872.0,1.5,0.0
13874.0,1.47,0.06
13876.0,1.45,0.16
13878.0,1.55,0.17
13880.0,1.65,0.31
13882.0,1.68,0.29
13884.0,1.7,0.56
13886.0,1.67,0.95
13887.0,1.59,1.07
13889.0,1.52,0.9
13891.0,1.42,0.91
13893.0,1.39,0.95
13895.0,1.35,0.95
13897.0,1.46,0.9
13899.0,1.6,0.85
13902.0,1.68,0.85
13904.0,1.72,0.94
13906.0,1.67,0.99
13908.0,1.58,1.04
13910.0,1.51,1.03
13912.0,1.4,1.0
13914.0,1.36,1.12
13916.0,1.35,1.21
13918.0,1.38,1.24
13920.0,1.43,1.38
13922.0,1.46,1.32
13924.0,1.5,1.25
13926.0,1.49,1.29
13928.0,1.42,1.53
13929.0,1.37,1.62
13931.0,1.28,1.62
13933.0,1.25,1.6
13935.0,1.27,1.66
13937.0,1.38,1.73
13939.0,1.48,1.66
13941.0,1.53,1.58
13944.0,1.58,1.72
13946.0,1.59,1.84
13948.0,1.5,1.85
13950.0,1.5,1.97
13952.0,1.35,1.97
13954.0,1.26,1.96
13956.0,1.28,2.06
13958.0,1.33,2.05
13960.0,1.4,1.97
13962.0,1.45,1.93
13964.0,1.45,1.96
13966.0,1.41,2.03
13968.0,1.44,2.12
13970.0,1.38,2.07
13971.0,1.26,1.96
13973.0,1.19,2.06
13975.0,1.2,2.23
13977.0,1.25,2.2
13979.0,1.33,2.15
13981.0,1.38,2.08
13983.0,1.44,2.11
13986.0,1.45,2.09
13988.0,1.41,2.11
13990.0,1.36,2.03
13992.0,1.26,1.97
13994.0,1.24,1.92
13996.0,1.25,2.0
13998.0,1.33,2.07
14000.0,1.42,2.06
14002.0,1.47,1.97
14004.0,1.54,2.08
14006.0,1.55,2.15
14008.0,1.47,2.14
14010.0,1.4,2.11
14012.0,1.26,2.07
14014.0,1.25,2.05
14015.0,1.29,2.05
14017.0,1.35,2.06
14019.0,1.4,2.03
14021.0,1.48,1.97
14023.0,1.52,1.95
14025.0,1.51,1.97
14027.0,1.45,1.94
14030.0,1.36,1.92
14032.0,1.25,1.92
14034.0,1.23,1.94
14036.0,1.24,1.88
14038.0,1.3,1.8
14040.0,1.4,1.79
14042.0,1.49,1.74
14044.0,1.55,1.73
14046.0,1.53,1.73
14048.0,1.46,1.72
14050.0,1.39,1.69
14052.0,1.25,1.58
14054.0,1.25,1.58
14056.0,1.28,1.74
14057.0,1.36,1.74
14059.0,1.41,1.65
14061.0,1.49,1.5
14063.0,1.55,1.4
14065.0,1.56,1.35
14067.0,1.5,1.36
14069.0,1.45,1.44
14072.0,1.35,1.41
14074.0,1.32,1.43
14076.0,1.33,1.51
14078.0,1.43,1.62
14080.0,1.53,1.64
14082.0,1.55,1.53
14084.0,1.56,1.51
14086.0,1.54,1.5
14088.0,1.49,1.41
14090.0,1.45,1.35
14092.0,1.37,1.45
14094.0,1.34,1.43
14096.0,1.34,1.48
14098.0,1.4,1.44
14100.0,1.46,1.51
14101.0,1.52,1.56
14103.0,1.55,1.53
14105.0,1.55,1.58
14107.0,1.47,1.62
14109.0,1.41,1.49
14111.0,1.29,1.48
14114.0,1.3,1.57
14116.0,1.28,1.59
14118.0,1.36,1.65
14120.0,1.42,1.63
14122.0,1.5,1.62
14124.0,1.55,1.62
14126.0,1.5,1.56
14128.0,1.4,1.51
14130.0,1.4,1.62
14132.0,1.31,1.47
14134.0,1.32,1.5
14136.0,1.37,1.65
14138.0,1.45,1.72
14140.0,1.52,1.66
14142.0,1.55,1.48
14143.0,1.55,1.5
14145.0,1.52,1.63
14147.0,1.51,1.65
14149.0,1.48,1.52
14151.0,1.34,1.36
14153.0,1.33,1.36
14155.0,1.29,1.32
14158.0,1.42,1.41
14160.0,1.52,1.38
14162.0,1.55,1.36
14164.0,1.59,1.54
14166.0,1.55,1.57
14168.0,1.45,1.51
14170.0,1.36,1.49
