time,ch1,ch2
0.15000000000000002,1.53,1.41
2.15,1.47,1.43
4.15,1.47,1.41
6.15,1.37,1.31
8.15,1.37,1.34
10.15,1.4,1.43
12.15,1.47,1.48
14.15,1.51,1.5
16.15,1.53,1.45
18.15,1.6,1.5
20.15,1.57,1.54
22.15,1.58,1.55
24.15,1.54,1.58
26.15,1.41,1.52
28.15,1.44,1.59
30.15,1.45,1.58
32.15,1.53,1.61
34.15,1.58,1.66
36.15,1.58,1.62
38.15,1.59,1.63
40.15,1.55,1.64
43.15,1.57,1.6
45.15,1.54,1.58
47.15,1.43,1.53
48.15,1.43,1.58
50.15,1.46,1.66
52.15,1.5,1.68
54.15,1.54,1.67
56.15,1.54,1.57
58.15,1.61,1.61
60.15,1.65,1.59
62.15,1.65,1.59
64.15,1.61,1.59
66.15,1.52,1.51
68.15,1.57,1.53
70.15,1.63,1.59
72.15,1.64,1.54
74.15,1.65,1.52
76.15,1.64,1.47
78.15,1.64,1.59
80.15,1.61,1.56
82.15,1.56,1.54
85.15,1.48,1.54
87.15,1.4,1.47
89.15,1.4,1.51
91.15,1.44,1.59
93.15,1.49,1.68
95.15,1.54,1.61
96.15,1.5,1.48
98.15,1.52,1.52
100.15,1.48,1.47
102.15,1.46,1.43
104.15,1.44,1.39
106.15,1.33,1.35
108.15,1.35,1.46
110.15,1.37,1.52
112.15,1.44,1.51
114.15,1.48,1.49
116.15,1.49,1.47
118.15,1.5,1.53
120.15,1.45,1.48
122.15,1.4,1.37
124.15,1.33,1.28
127.15,1.25,1.26
129.15,1.3,1.37
131.15,1.32,1.46
133.15,1.41,1.49
135.15,1.46,1.46
137.15,1.45,1.43
138.15,1.46,1.43
140.15,1.43,1.38
142.15,1.41,1.35
144.15,1.36,1.37
146.15,1.27,1.35
148.15,1.33,1.41
150.15,1.39,1.46
152.15,1.44,1.44
154.15,1.45,1.37
156.15,1.41,1.35
158.15,1.45,1.39
160.15,1.41,1.37
162.15,1.35,1.32
164.15,1.34,1.26
166.15,1.27,1.21
168.15,1.33,1.27
171.15,1.37,1.28
173.15,1.44,1.31
175.15,1.48,1.32
177.15,1.48,1.26
179.15,1.51,1.31
181.15,1.49,1.3
182.15,1.43,1.3
184.15,1.35,1.26
186.15,1.25,1.19
188.15,1.27,1.23
190.15,1.35,1.34
192.15,1.42,1.36
194.15,1.45,1.32
196.15,1.43,1.27
198.15,1.43,1.29
200.15,1.4,1.3
202.15,1.37,1.32
204.15,1.3,1.27
206.15,1.21,1.24
208.15,1.28,1.36
210.15,1.32,1.35
213.15,1.39,1.38
215.15,1.45,1.39
217.15,1.45,1.39
219.15,1.49,1.46
221.15,1.44,1.46
223.15,1.36,1.44
224.15,1.35,1.42
226.15,1.31,1.39
228.15,1.35,1.48
230.15,1.4,1.52
232.15,1.48,1.56
234.15,1.51,1.58
236.15,1.49,1.55
238.15,1.52,1.51
240.15,1.46,1.43
242.15,1.43,1.37
244.15,1.35,1.39
246.15,1.28,1.53
248.15,1.28,1.62
250.15,1.4,1.76
252.15,1.43,1.74
255.15,1.48,1.7
257.15,1.51,1.63
259.15,1.52,1.63
261.15,1.47,1.67
263.15,1.4,1.65
265.15,1.35,1.68
266.15,1.29,1.61
268.15,1.35,1.57
270.15,1.41,1.65
272.15,1.48,1.68
274.15,1.54,1.71
276.15,1.53,1.71
278.15,1.51,1.77
280.15,1.5,1.76
282.15,1.52,1.71
284.15,1.45,1.62
286.15,1.41,1.52
288.15,1.46,1.52
290.15,1.48,1.53
292.15,1.51,1.49
294.15,1.54,1.55
296.15,1.53,1.49
299.15,1.52,1.41
301.15,1.45,1.38
303.15,1.38,1.36
305.15,1.34,1.23
307.15,1.29,1.15
309.15,1.3,1.16
310.15,1.39,1.27
312.15,1.44,1.31
314.15,1.47,1.25
316.15,1.47,1.2
318.15,1.49,1.24
320.15,1.47,1.29
322.15,1.46,1.32
324.15,1.41,1.25
326.15,1.33,1.21
328.15,1.35,1.19
330.15,1.39,1.22
332.15,1.4,1.21
334.15,1.43,1.24
336.15,1.46,1.21
338.15,1.44,1.23
341.15,1.42,1.26
343.15,1.4,1.2
345.15,1.35,1.04
347.15,1.27,0.98
349.15,1.27,0.99
351.15,1.35,0.99
352.15,1.41,1.02
354.15,1.49,1.06
356.15,1.49,1.06
358.15,1.51,1.04
360.15,1.57,1.11
362.15,1.55,1.15
364.15,1.49,1.09
366.15,1.44,1.02
368.15,1.49,1.08
370.15,1.55,1.13
372.15,1.63,1.21
374.15,1.64,1.18
376.15,1.63,1.16
378.15,1.58,1.16
380.15,1.55,1.15
383.15,1.49,1.1
385.15,1.44,1.06
387.15,1.38,1.03
389.15,1.38,1.04
391.15,1.42,1.05
393.15,1.5,1.12
395.15,1.55,1.09
396.15,1.53,1.05
398.15,1.53,1.11
400.15,1.49,1.09
402.15,1.45,1.08
404.15,1.39,1.01
406.15,1.32,1.06
408.15,1.31,1.14
410.15,1.34,1.21
412.15,1.37,1.18
414.15,1.42,1.18
416.15,1.47,1.17
418.15,1.5,1.23
420.15,1.45,1.19
422.15,1.44,1.24
424.15,1.41,1.27
427.15,1.35,1.2
429.15,1.42,1.23
431.15,1.46,1.29
433.15,1.55,1.38
435.15,1.51,1.34
437.15,1.48,1.29
438.15,1.5,1.33
440.15,1.46,1.39
442.15,1.41,1.49
444.15,1.34,1.47
446.15,1.34,1.42
448.15,1.42,1.47
450.15,1.49,1.52
452.15,1.54,1.52
454.15,1.54,1.45
456.15,1.56,1.46
458.15,1.57,1.51
460.15,1.55,1.43
462.15,1.52,1.38
464.15,1.43,1.36
466.15,1.38,1.38
469.15,1.4,1.43
471.15,1.46,1.46
473.15,1.55,1.57
475.15,1.53,1.49
477.15,1.51,1.51
479.15,1.51,1.56
480.15,1.46,1.55
482.15,1.45,1.56
484.15,1.35,1.59
486.15,1.32,1.56
488.15,1.31,1.6
490.15,1.37,1.67
492.15,1.44,1.74
494.15,1.46,1.67
496.15,1.45,1.75
498.15,1.5,1.67
500.15,1.47,1.59
502.15,1.42,1.55
504.15,1.37,1.44
506.15,1.31,1.36
508.15,1.33,1.38
511.15,1.38,1.51
513.15,1.44,1.58
515.15,1.46,1.49
517.15,1.45,1.47
519.15,1.45,1.48
521.15,1.38,1.4
523.15,1.35,1.35
524.15,1.29,1.28
526.15,1.24,1.25
528.15,1.24,1.23
530.15,1.3,1.38
532.15,1.37,1.67
534.15,1.45,1.64
536.15,1.47,1.55
538.15,1.44,1.55
540.15,1.39,1.55
542.15,1.38,1.59
544.15,1.34,1.54
546.15,1.3,1.53
548.15,1.33,1.57
550.15,1.36,1.67
552.15,1.35,1.71
555.15,1.42,1.71
557.15,1.42,1.63
559.15,1.44,1.63
561.15,1.4,1.64
563.15,1.37,1.62
565.15,1.31,1.58
566.15,1.27,1.51
568.15,1.31,1.77
570.15,1.35,2.04
572.15,1.37,2.11
574.15,1.42,2.06
576.15,1.45,2.02
578.15,1.46,2.05
580.15,1.45,2.05
582.15,1.43,1.95
584.15,1.32,1.67
586.15,1.26,1.62
588.15,1.25,1.65
590.15,1.33,1.67
592.15,1.43,1.67
594.15,1.46,1.55
597.15,1.48,1.46
599.15,1.52,1.41
601.15,1.5,1.33
603.15,1.48,1.25
605.15,1.41,1.28
607.15,1.37,1.24
608.15,1.44,1.26
610.15,1.54,1.27
612.15,1.57,1.27
614.15,1.63,1.4
616.15,1.68,1.24
618.15,1.7,1.05
620.15,1.67,0.98
622.15,1.66,1.15
624.15,1.59,1.26
626.15,1.54,1.03
628.15,1.57,0.92
630.15,1.61,0.89
632.15,1.7,0.82
634.15,1.7,0.77
636.15,1.68,0.35
639.15,1.69,0.0
641.15,1.69,0.0
643.15,1.63,0.0
645.15,1.51,0.0
647.15,1.42,0.0
649.15,1.48,0.0
651.15,1.48,0.0
652.15,1.46,0.0
654.15,1.43,0.0
656.15,1.42,0.0
658.15,1.43,0.0
660.15,1.45,0.0
662.15,1.51,0.0
664.15,1.51,0.03
666.15,1.48,0.05
668.15,1.56,0.12
670.15,1.62,0.05
672.15,1.68,0.19
674.15,1.69,0.55
676.15,1.71,0.36
678.15,1.66,0.5
680.15,1.55,0.64
683.15,1.45,0.71
685.15,1.41,0.62
687.15,1.38,0.82
689.15,1.4,1.05
691.15,1.49,1.12
693.15,1.51,1.23
694.15,1.48,1.32
696.15,1.5,1.45
698.15,1.48,1.48
700.15,1.47,1.63
702.15,1.46,1.39
704.15,1.43,1.01
706.15,1.4,0.73
708.15,1.43,0.56
710.15,1.55,0.55
712.15,1.65,0.54
714.15,1.7,0.49
716.15,1.69,0.64
718.15,1.69,0.9
720.15,1.64,0.97
722.15,1.61,1.01
725.15,1.52,0.93
727.15,1.47,0.9
729.15,1.49,0.93
731.15,1.54,1.47
733.15,1.55,1.77
735.15,1.55,1.66
736.15,1.54,1.5
738.15,1.53,1.75
740.15,1.49,1.72
742.15,1.41,1.82
744.15,1.36,1.91
746.15,1.35,1.99
748.15,1.35,2.11
750.15,1.39,2.11
752.15,1.44,2.14
754.15,1.47,2.29
756.15,1.45,2.35
758.15,1.43,2.15
760.15,1.4,2.09
762.15,1.36,2.2
764.15,1.25,2.16
767.15,1.17,2.15
769.15,1.22,2.15
771.15,1.29,2.24
773.15,1.35,2.24
775.15,1.39,2.16
777.15,1.37,2.18
779.15,1.34,2.14
780.15,1.33,2.04
782.15,1.34,2.05
784.15,1.25,1.89
786.15,1.22,1.75
788.15,1.22,1.76
790.15,1.28,1.83
792.15,1.35,1.82
794.15,1.42,1.88
796.15,1.49,1.96
798.15,1.55,1.92
800.15,1.55,1.83
802.15,1.48,1.92
804.15,1.4,1.98
806.15,1.37,2.05
808.15,1.45,2.22
811.15,1.44,2.3
813.15,1.47,2.42
815.15,1.51,2.53
817.15,1.57,2.55
819.15,1.54,2.44
821.15,1.49,2.39
822.15,1.46,2.24
824.15,1.41,2.22
826.15,1.38,2.34
828.15,1.42,2.49
830.15,1.47,2.63
832.15,1.57,2.7
834.15,1.56,2.6
836.15,1.54,2.45
838.15,1.54,2.44
840.15,1.56,2.45
842.15,1.58,2.53
844.15,1.48,2.28
846.15,1.45,2.1
848.15,1.51,1.96
850.15,1.59,1.77
853.15,1.63,1.74
855.15,1.63,1.66
857.15,1.6,1.54
859.15,1.56,1.49
861.15,1.49,1.39
863.15,1.45,1.28
864.15,1.39,1.2
866.15,1.38,1.18
868.15,1.43,1.33
870.15,1.5,1.36
872.15,1.54,1.38
874.15,1.52,1.28
876.15,1.48,1.22
878.15,1.41,1.11
880.15,1.33,1.06
882.15,1.3,0.99
884.15,1.22,0.92
886.15,1.21,0.85
888.15,1.18,0.81
890.15,1.28,0.9
892.15,1.37,0.99
895.15,1.39,0.94
897.15,1.4,0.9
899.15,1.33,0.82
901.15,1.33,0.78
903.15,1.39,0.79
905.15,1.28,0.76
907.15,1.3,0.88
908.15,1.31,0.96
910.15,1.42,0.98
912.15,1.48,0.91
914.15,1.52,0.91
916.15,1.54,0.88
918.15,1.53,0.96
920.15,1.52,0.99
922.15,1.53,1.0
924.15,1.41,0.94
926.15,1.37,0.98
928.15,1.38,0.99
930.15,1.39,1.08
932.15,1.47,1.23
934.15,1.48,1.29
936.15,1.51,1.33
939.15,1.51,1.4
941.15,1.5,1.39
943.15,1.5,1.36
945.15,1.44,1.3
947.15,1.42,1.3
949.15,1.45,1.4
950.15,1.5,1.54
952.15,1.56,1.61
954.15,1.52,1.53
956.15,1.54,1.49
958.15,1.58,1.51
960.15,1.53,1.68
962.15,1.47,1.66
964.15,1.41,1.55
966.15,1.41,1.55
968.15,1.39,1.62
970.15,1.49,1.77
972.15,1.58,1.91
974.15,1.59,1.83
976.15,1.65,1.95
978.15,1.65,1.95
981.15,1.73,1.88
983.15,1.74,1.72
985.15,1.63,1.52
987.15,1.6,1.54
989.15,1.6,1.61
991.15,1.65,1.62
992.15,1.75,1.59
994.15,1.79,1.56
996.15,1.85,1.62
998.15,1.85,1.65
1000.15,1.81,1.75
1002.15,1.75,1.75
1004.15,1.67,1.72
1006.15,1.65,1.73
1008.15,1.64,1.74
1010.15,1.61,1.79
1012.15,1.69,1.92
1014.15,1.69,1.77
1016.15,1.69,1.75
1018.15,1.65,1.75
1020.15,1.64,1.78
1023.15,1.58,1.65
1025.15,1.48,1.56
1027.15,1.45,1.62
1029.15,1.44,1.62
1031.15,1.5,1.67
1033.15,1.57,1.73
1035.15,1.61,1.67
1036.15,1.6,1.61
1038.15,1.57,1.67
1040.15,1.48,1.62
1042.15,1.44,1.62
1044.15,1.33,1.54
1046.15,1.24,1.61
1048.15,1.19,1.73
1050.15,1.22,1.79
1052.15,1.37,1.86
1054.15,1.41,1.79
1056.15,1.41,1.86
1058.15,1.43,1.9
1060.15,1.44,1.94
1062.15,1.4,1.88
1064.15,1.33,1.84
1067.15,1.34,1.92
1069.15,1.31,1.95
1071.15,1.32,2.08
1073.15,1.36,2.05
1075.15,1.37,1.89
1077.15,1.38,1.88
1078.15,1.4,1.9
1080.15,1.35,1.85
1082.15,1.32,1.75
1084.15,1.22,1.61
1086.15,1.2,1.62
1088.15,1.18,1.64
1090.15,1.28,1.57
1092.15,1.36,1.47
1094.15,1.42,1.39
1096.15,1.48,1.43
1098.15,1.54,1.55
1100.15,1.51,1.59
1102.15,1.48,1.64
1104.15,1.36,1.59
1106.15,1.36,1.63
1109.15,1.37,1.59
1111.15,1.44,1.68
1113.15,1.44,1.76
1115.15,1.45,1.74
1117.15,1.45,1.79
1119.15,1.45,1.87
1121.15,1.4,1.92
1122.15,1.41,1.92
1124.15,1.29,1.93
1126.15,1.29,1.86
1128.15,1.3,1.87
1130.15,1.34,1.93
1132.15,1.38,1.94
1134.15,1.39,1.91
1136.15,1.4,1.9
1138.15,1.39,1.83
1140.15,1.34,1.64
1142.15,1.31,1.64
1144.15,1.23,1.57
1146.15,1.24,1.51
1148.15,1.25,1.46
1151.15,1.33,1.56
1153.15,1.39,1.66
1155.15,1.39,1.64
1157.15,1.4,1.69
1159.15,1.37,1.7
1161.15,1.36,1.7
1163.15,1.37,1.7
1164.15,1.29,1.59
1166.15,1.29,1.58
1168.15,1.32,1.69
1170.15,1.4,1.79
1172.15,1.45,1.81
1174.15,1.48,1.7
1176.15,1.5,1.61
1178.15,1.52,1.58
1180.15,1.44,1.58
1182.15,1.37,1.56
1184.15,1.3,1.48
1186.15,1.31,1.48
1188.15,1.38,1.64
1190.15,1.4,1.91
1192.15,1.43,1.94
1195.15,1.42,1.77
1197.15,1.43,1.77
1199.15,1.36,1.72
1201.15,1.32,1.78
1203.15,1.29,1.77
1205.15,1.21,1.75
1207.15,1.18,1.81
1208.15,1.22,1.84
1210.15,1.33,1.85
1212.15,1.43,1.81
1214.15,1.44,1.65
1216.15,1.49,1.7
1218.15,1.46,1.72
1220.15,1.43,1.74
1222.15,1.43,1.72
1224.15,1.34,1.68
1226.15,1.27,1.68
1228.15,1.32,1.76
1230.15,1.39,1.86
1232.15,1.47,1.96
1234.15,1.49,1.9
1237.15,1.5,1.9
1239.15,1.45,1.84
1241.15,1.45,1.89
1243.15,1.42,1.91
1245.15,1.32,1.79
1247.15,1.29,1.71
1249.15,1.38,1.84
1250.15,1.46,1.96
1252.15,1.53,1.94
1254.15,1.55,1.86
1256.15,1.56,1.91
1258.15,1.5,1.91
1260.15,1.42,1.87
1262.15,1.34,1.77
1264.15,1.27,1.67
1266.15,1.28,1.68
1268.15,1.3,1.68
1270.15,1.37,1.66
1272.15,1.42,1.68
1274.15,1.43,1.59
1276.15,1.46,1.56
1279.15,1.44,1.63
1281.15,1.47,1.57
1283.15,1.41,1.48
1285.15,1.3,1.37
1287.15,1.31,1.37
1289.15,1.29,1.28
1291.15,1.31,1.26
1293.15,1.36,1.37
1294.15,1.36,1.29
1296.15,1.42,1.33
1298.15,1.37,1.31
1300.15,1.38,1.31
1302.15,1.37,1.33
1304.15,1.33,1.18
1306.15,1.35,1.21
1308.15,1.33,1.22
1310.15,1.38,1.24
1312.15,1.42,1.22
1314.15,1.42,1.23
1316.15,1.47,1.29
1318.15,1.45,1.37
1320.15,1.43,1.37
1323.15,1.44,1.34
1325.15,1.35,1.25
1327.15,1.37,1.33
1329.15,1.37,1.47
1331.15,1.36,1.47
1333.15,1.38,1.48
1335.15,1.42,1.4
1336.15,1.49,1.37
1338.15,1.5,1.33
1340.15,1.51,1.39
1342.15,1.49,1.34
1344.15,1.43,1.28
1346.15,1.45,1.31
1348.15,1.5,1.41
1350.15,1.57,1.48
1352.15,1.65,1.44
1354.15,1.6,1.33
1356.15,1.63,1.42
1358.15,1.59,1.44
1360.15,1.55,1.35
1362.15,1.52,1.27
1365.15,1.4,1.15
1367.15,1.38,1.13
1369.15,1.39,1.17
1371.15,1.48,1.2
1373.15,1.56,1.19
1375.15,1.56,1.14
1377.15,1.59,1.14
1379.15,1.65,1.25
1380.15,1.63,1.21
1382.15,1.58,1.02
1384.15,1.51,1.02
1386.15,1.5,1.04
1388.15,1.54,1.1
1390.15,1.63,1.17
1392.15,1.68,1.14
1394.15,1.67,0.96
1396.15,1.68,0.94
1398.15,1.65,0.99
1400.15,1.61,1.0
1402.15,1.55,0.98
1404.15,1.46,0.88
1407.15,1.49,0.89
1409.15,1.5,0.9
1411.15,1.56,0.91
1413.15,1.63,0.93
1415.15,1.6,0.91
1417.15,1.58,0.94
1419.15,1.52,0.95
1421.15,1.5,0.97
1422.15,1.47,0.95
1424.15,1.4,0.85
1426.15,1.39,0.86
1428.15,1.44,0.89
1430.15,1.47,0.92
1432.15,1.49,0.96
1434.15,1.47,0.9
1436.15,1.48,0.98
1438.15,1.45,1.02
1440.15,1.42,1.09
1442.15,1.39,1.24
1444.15,1.26,1.12
1446.15,1.29,1.09
1448.15,1.28,1.16
1451.15,1.32,1.25
1453.15,1.33,1.29
1455.15,1.35,1.27
1457.15,1.39,1.27
1459.15,1.39,1.23
1461.15,1.37,1.25
1463.15,1.36,1.25
1465.15,1.28,1.25
1466.15,1.28,1.26
1468.15,1.31,1.24
1470.15,1.4,1.25
1472.15,1.52,1.31
1474.15,1.54,1.31
1476.15,1.58,1.39
1478.15,1.53,1.42
1480.15,1.5,1.49
1482.15,1.41,1.45
1484.15,1.3,1.33
1486.15,1.32,1.37
1488.15,1.33,1.39
1490.15,1.41,1.41
1493.15,1.45,1.44
1495.15,1.43,1.4
1497.15,1.43,1.49
1499.15,1.38,1.55
1501.15,1.4,1.59
1503.15,1.35,1.43
1505.15,1.28,1.31
1507.15,1.31,1.28
1508.15,1.38,1.35
1510.15,1.44,1.34
1512.15,1.46,1.34
1514.15,1.49,1.34
1516.15,1.53,1.42
1518.15,1.57,1.39
1520.15,1.58,1.5
1522.15,1.49,1.5
1524.15,1.37,1.38
1526.15,1.42,1.34
1528.15,1.46,1.32
1530.15,1.48,1.37
1532.15,1.49,1.45
1535.15,1.49,1.42
1537.15,1.53,1.46
1539.15,1.56,1.54
1541.15,1.48,1.53
1543.15,1.4,1.47
1545.15,1.32,1.38
1547.15,1.32,1.4
1549.15,1.33,1.52
1551.15,1.37,1.51
1552.15,1.49,1.55
1554.15,1.46,1.5
1556.15,1.48,1.56
1558.15,1.44,1.55
1560.15,1.45,1.54
1562.15,1.38,1.54
1564.15,1.29,1.41
1566.15,1.33,1.45
1568.15,1.36,1.52
1570.15,1.47,1.55
1572.15,1.52,1.48
1574.15,1.48,1.34
1576.15,1.46,1.36
1579.15,1.44,1.43
1581.15,1.42,1.42
1583.15,1.4,1.37
1585.15,1.34,1.34
1587.15,1.34,1.41
1589.15,1.37,1.49
1591.15,1.43,1.48
1593.15,1.47,1.48
1594.15,1.45,1.38
1596.15,1.47,1.44
1598.15,1.48,1.44
1600.15,1.43,1.38
1602.15,1.44,1.43
1604.15,1.35,1.36
1606.15,1.38,1.45
1608.15,1.42,1.47
1610.15,1.44,1.46
1612.15,1.48,1.47
1614.15,1.46,1.43
1616.15,1.46,1.58
1618.15,1.46,1.57
1621.15,1.41,1.52
1623.15,1.4,1.52
1625.15,1.29,1.49
1627.15,1.31,1.56
1629.15,1.31,1.52
1631.15,1.39,1.52
1633.15,1.48,1.55
1635.15,1.51,1.46
1637.15,1.51,1.51
1638.15,1.48,1.52
1640.15,1.44,1.49
1642.15,1.4,1.47
1644.15,1.29,1.47
1646.15,1.31,1.59
1648.15,1.34,1.62
1650.15,1.41,1.71
1652.15,1.44,1.76
1654.15,1.4,1.69
1656.15,1.48,1.75
1658.15,1.49,1.7
1660.15,1.44,1.68
1663.15,1.43,1.69
1665.15,1.31,1.6
1667.15,1.28,1.72
1669.15,1.28,1.91
1671.15,1.34,1.92
1673.15,1.38,1.89
1675.15,1.36,1.77
1677.15,1.41,1.86
1679.15,1.41,1.8
1680.15,1.44,1.74
1682.15,1.45,1.76
1684.15,1.31,1.68
1686.15,1.38,1.7
1688.15,1.46,1.71
1690.15,1.51,1.73
1692.15,1.58,1.78
1694.15,1.57,1.65
1696.15,1.6,1.64
1698.15,1.58,1.64
1700.15,1.54,1.68
1702.15,1.5,1.71
1704.15,1.37,1.63
1707.15,1.38,1.61
1709.15,1.42,1.72
1711.15,1.47,1.71
1713.15,1.53,1.59
1715.15,1.51,1.5
1717.15,1.55,1.7
1719.15,1.49,1.85
1721.15,1.51,1.81
1723.15,1.45,1.61
1724.15,1.35,1.51
1726.15,1.36,1.42
1728.15,1.42,1.49
1730.15,1.45,1.75
1732.15,1.52,1.73
1734.15,1.49,1.49
1736.15,1.47,1.4
1738.15,1.52,1.5
1740.15,1.51,1.76
1742.15,1.44,1.6
1744.15,1.35,1.41
1746.15,1.44,1.45
1749.15,1.51,1.61
1751.15,1.55,1.68
1753.15,1.63,1.73
1755.15,1.61,1.66
1757.15,1.65,1.65
1759.15,1.57,1.58
1761.15,1.52,1.54
1763.15,1.5,1.63
1765.15,1.41,1.6
1766.15,1.43,1.46
1768.15,1.44,1.48
1770.15,1.46,1.6
1772.15,1.53,1.58
1774.15,1.53,1.35
1776.15,1.52,1.29
1778.15,1.52,1.45
1780.15,1.47,1.44
1782.15,1.4,1.35
1784.15,1.28,1.19
1786.15,1.33,1.48
1788.15,1.36,1.59
1791.15,1.42,1.59
1793.15,1.47,1.48
1795.15,1.43,1.47
1797.15,1.45,1.44
1799.15,1.45,1.31
1801.15,1.44,1.27
1803.15,1.39,1.15
1805.15,1.29,1.14
1807.15,1.33,1.41
1809.15,1.35,1.55
1810.15,1.4,1.48
1812.15,1.47,1.34
1814.15,1.41,1.06
1816.15,1.4,1.04
1818.15,1.32,1.14
1820.15,1.29,1.3
1822.15,1.26,1.29
1824.15,1.16,1.14
1826.15,1.16,1.22
1828.15,1.21,1.25
1830.15,1.34,1.28
1832.15,1.4,1.15
1835.15,1.38,0.91
1837.15,1.42,1.17
1839.15,1.41,1.31
1841.15,1.37,1.17
1843.15,1.32,1.0
1845.15,1.19,0.77
1847.15,1.2,0.84
1849.15,1.24,0.96
1851.15,1.35,0.94
1852.15,1.41,0.94
1854.15,1.44,1.01
1856.15,1.5,0.99
1858.15,1.5,0.95
1860.15,1.49,0.79
1862.15,1.51,0.77
1864.15,1.4,0.56
1866.15,1.41,0.63
1868.15,1.46,0.83
1870.15,1.53,0.9
1872.15,1.51,0.89
1874.15,1.46,0.86
1877.15,1.45,0.99
1879.15,1.43,0.92
1881.15,1.46,0.98
1883.15,1.41,1.16
1885.15,1.29,1.18
1887.15,1.31,1.15
1889.15,1.35,0.98
1891.15,1.42,0.85
1893.15,1.5,0.83
1895.15,1.51,0.74
1896.15,1.51,0.75
1898.15,1.49,0.89
1900.15,1.48,1.01
1902.15,1.41,0.95
1904.15,1.36,0.83
1906.15,1.42,0.77
1908.15,1.51,0.78
1910.15,1.56,0.78
1912.15,1.66,0.82
1914.15,1.67,0.71
1916.15,1.76,0.83
1919.15,1.79,0.97
1921.15,1.93,1.18
1923.15,1.91,1.13
1925.15,1.75,0.98
1927.15,1.79,1.06
1929.15,1.82,1.2
1931.15,1.86,1.32
1933.15,1.91,1.49
1935.15,1.89,1.38
1937.15,1.86,1.32
1938.15,1.8,1.18
1940.15,1.81,1.09
1942.15,1.79,0.96
1944.15,1.65,0.9
1946.15,1.65,0.97
1948.15,1.67,1.21
1950.15,1.69,1.24
1952.15,1.78,1.32
1954.15,1.77,1.12
1956.15,1.76,1.11
1958.15,1.75,1.18
1960.15,1.71,1.1
1963.15,1.65,1.02
1965.15,1.55,0.93
1967.15,1.59,1.01
1969.15,1.66,1.17
1971.15,1.68,1.27
1973.15,1.71,1.34
1975.15,1.72,1.19
1977.15,1.74,1.1
1979.15,1.68,0.96
1981.15,1.57,0.96
1982.15,1.5,1.06
1984.15,1.44,1.03
1986.15,1.48,1.0
1988.15,1.52,1.05
1990.15,1.64,1.05
1992.15,1.77,1.07
1994.15,1.77,1.02
1996.15,1.76,0.97
1998.15,1.71,0.89
2000.15,1.64,0.84
2002.15,1.58,0.85
2005.15,1.48,0.89
2007.15,1.5,1.03
2009.15,1.55,1.15
2011.15,1.56,1.11
2013.15,1.6,1.11
2015.15,1.58,0.96
2017.15,1.58,0.85
2019.15,1.61,1.01
2021.15,1.56,1.27
2023.15,1.49,1.38
2025.15,1.37,1.51
2026.15,1.37,1.64
2028.15,1.37,1.66
2030.15,1.4,1.56
2032.15,1.5,1.47
2034.15,1.5,1.27
2036.15,1.54,1.27
2038.15,1.49,1.24
2040.15,1.43,1.22
2042.15,1.38,1.04
2044.15,1.21,0.94
2047.15,1.19,0.89
2049.15,1.19,0.7
2051.15,1.28,0.46
2053.15,1.44,0.53
2055.15,1.44,0.53
2057.15,1.5,0.64
2059.15,1.47,0.73
2061.15,1.42,0.8
2063.15,1.33,0.75
2065.15,1.18,0.52
2067.15,1.19,0.55
2068.15,1.22,0.79
2070.15,1.33,1.01
2072.15,1.41,0.98
2074.15,1.37,0.93
2076.15,1.35,1.04
2078.15,1.38,1.22
2080.15,1.35,1.46
2082.15,1.29,1.63
2084.15,1.21,1.74
2086.15,1.21,1.95
2088.15,1.25,2.15
2091.15,1.36,2.32
2093.15,1.44,2.38
2095.15,1.42,2.35
2097.15,1.46,2.54
2099.15,1.38,2.61
2101.15,1.32,2.64
2103.15,1.27,2.66
2105.15,1.21,2.75
2107.15,1.24,2.81
2109.15,1.29,2.74
2110.15,1.35,2.69
2112.15,1.38,2.74
2114.15,1.35,2.65
2116.15,1.36,2.57
2118.15,1.36,2.42
2120.15,1.38,2.36
2122.15,1.37,2.36
2124.15,1.25,2.32
2126.15,1.25,2.54
2128.15,1.31,2.57
2130.15,1.38,2.5
2133.15,1.47,2.52
2135.15,1.45,2.47
2137.15,1.5,2.47
2139.15,1.5,2.43
2141.15,1.46,2.34
2143.15,1.43,2.3
2145.15,1.33,2.32
2147.15,1.31,2.37
2149.15,1.37,2.43
2151.15,1.4,2.38
2153.15,1.45,2.36
2154.15,1.44,2.28
2156.15,1.48,2.35
2158.15,1.42,2.36
2160.15,1.44,2.38
2162.15,1.41,2.33
2164.15,1.32,2.16
2166.15,1.31,2.02
2168.15,1.38,2.09
2170.15,1.46,2.09
2172.15,1.5,2.09
2175.15,1.44,1.87
2177.15,1.47,1.85
2179.15,1.46,1.79
2181.15,1.43,1.81
2183.15,1.39,1.76
2185.15,1.32,1.67
2187.15,1.36,1.72
2189.15,1.41,1.78
2191.15,1.48,1.68
2193.15,1.53,1.59
2195.15,1.48,1.46
2197.15,1.5,1.47
2198.15,1.51,1.42
2200.15,1.47,1.45
2202.15,1.38,1.41
2204.15,1.29,1.33
2206.15,1.35,1.39
2208.15,1.4,1.39
2210.15,1.43,1.4
2212.15,1.47,1.36
2214.15,1.46,1.3
2216.15,1.47,1.43
2219.15,1.44,1.43
2221.15,1.43,1.49
2223.15,1.36,1.45
2225.15,1.26,1.39
2227.15,1.29,1.58
2229.15,1.36,1.76
2231.15,1.44,1.82
2233.15,1.54,1.87
2235.15,1.49,1.72
2237.15,1.5,1.71
2239.15,1.46,1.75
2240.15,1.47,1.83
2242.15,1.38,1.69
2244.15,1.3,1.65
2246.15,1.34,1.69
2248.15,1.45,1.76
2250.15,1.48,1.66
2252.15,1.54,1.65
2254.15,1.52,1.62
2256.15,1.52,1.69
2258.15,1.48,1.73
2261.15,1.4,1.67
2263.15,1.35,1.68
2265.15,1.27,1.62
2267.15,1.3,1.59
2269.15,1.35,1.61
2271.15,1.44,1.67
2273.15,1.51,1.7
2275.15,1.55,1.71
2277.15,1.59,1.76
2279.15,1.61,1.71
2281.15,1.53,1.6
2283.15,1.41,1.53
2284.15,1.36,1.5
2286.15,1.4,1.45
2288.15,1.44,1.44
2290.15,1.53,1.59
2292.15,1.57,1.67
2294.15,1.53,1.57
2296.15,1.55,1.58
2298.15,1.52,1.61
2300.15,1.47,1.68
2303.15,1.41,1.7
2305.15,1.33,1.6
2307.15,1.36,1.56
2309.15,1.41,1.56
2311.15,1.46,1.5
2313.15,1.48,1.45
2315.15,1.47,1.41
2317.15,1.5,1.42
2319.15,1.48,1.4
2321.15,1.41,1.39
2323.15,1.38,1.44
2325.15,1.3,1.45
2326.15,1.35,1.57
2328.15,1.34,1.64
2330.15,1.35,1.7
2332.15,1.37,1.76
2334.15,1.35,1.73
2336.15,1.38,1.81
2338.15,1.37,1.85
2340.15,1.37,1.93
2342.15,1.32,1.91
2344.15,1.19,1.79
2347.15,1.17,1.8
2349.15,1.24,1.83
2351.15,1.33,1.82
2353.15,1.37,1.8
2355.15,1.38,1.85
2357.15,1.43,2.0
2359.15,1.41,2.08
2361.15,1.37,1.91
2363.15,1.34,1.8
2365.15,1.25,1.76
2367.15,1.27,1.89
2369.15,1.32,1.96
2370.15,1.39,2.05
2372.15,1.43,2.1
2374.15,1.41,2.07
2376.15,1.43,2.18
2378.15,1.41,2.2
2380.15,1.4,2.17
2382.15,1.32,2.14
2384.15,1.26,2.02
2386.15,1.32,2.04
2389.15,1.37,2.0
2391.15,1.42,2.01
2393.15,1.46,2.0
2395.15,1.45,1.93
2397.15,1.47,1.96
2399.15,1.46,1.95
2401.15,1.42,1.91
2403.15,1.4,1.79
2405.15,1.36,1.74
2407.15,1.41,1.73
2409.15,1.49,1.69
2411.15,1.55,1.62
2413.15,1.63,1.5
2414.15,1.56,1.38
2416.15,1.54,1.4
2418.15,1.53,1.35
2420.15,1.55,1.3
2422.15,1.5,1.35
2424.15,1.44,1.33
2426.15,1.44,1.38
2428.15,1.46,1.49
2431.15,1.55,1.56
2433.15,1.62,1.43
2435.15,1.6,1.36
2437.15,1.6,1.46
2439.15,1.55,1.4
2441.15,1.53,1.43
2443.15,1.45,1.31
2445.15,1.35,1.26
2447.15,1.38,1.2
2449.15,1.43,1.29
2451.15,1.45,1.35
2453.15,1.5,1.35
2455.15,1.47,1.29
2456.15,1.48,1.4
2458.15,1.44,1.43
2460.15,1.38,1.48
2462.15,1.3,1.44
2464.15,1.23,1.35
2466.15,1.3,1.34
2468.15,1.38,1.35
2470.15,1.42,1.37
2472.15,1.51,1.35
2475.15,1.51,1.24
2477.15,1.48,1.35
2479.15,1.47,1.39
2481.15,1.45,1.36
2483.15,1.38,1.28
2485.15,1.33,1.17
2487.15,1.35,1.24
2489.15,1.44,1.34
2491.15,1.49,1.35
2493.15,1.5,1.29
2495.15,1.48,1.24
2497.15,1.49,1.15
2498.15,1.45,1.09
2500.15,1.47,1.19
2502.15,1.45,1.2
2504.15,1.39,1.22
2506.15,1.38,1.31
2508.15,1.37,1.32
2510.15,1.45,1.29
2512.15,1.49,1.22
2514.15,1.49,1.1
2517.15,1.49,1.18
2519.15,1.49,1.25
2521.15,1.46,1.25
2523.15,1.41,1.2
2525.15,1.35,1.17
2527.15,1.37,1.19
2529.15,1.41,1.25
2531.15,1.47,1.35
2533.15,1.49,1.39
2535.15,1.46,1.44
2537.15,1.49,1.51
2539.15,1.47,1.41
2541.15,1.42,1.26
2542.15,1.38,1.07
2544.15,1.31,1.07
2546.15,1.35,1.19
2548.15,1.38,1.26
2550.15,1.43,1.33
2552.15,1.43,1.36
2554.15,1.43,1.37
2556.15,1.45,1.37
2559.15,1.42,1.38
2561.15,1.36,1.31
2563.15,1.32,1.17
2565.15,1.28,1.02
2567.15,1.29,0.96
2569.15,1.36,1.06
2571.15,1.43,1.12
2573.15,1.5,1.19
2575.15,1.49,1.12
2577.15,1.55,1.26
2579.15,1.52,1.22
2581.15,1.5,1.15
2583.15,1.43,1.09
2585.15,1.36,1.06
2586.15,1.39,1.18
2588.15,1.45,1.21
2590.15,1.53,1.31
2592.15,1.62,1.32
2594.15,1.63,1.24
2596.15,1.63,1.28
2598.15,1.58,1.29
2600.15,1.57,1.14
2603.15,1.53,1.11
2605.15,1.5,1.16
2607.15,1.53,1.24
2609.15,1.59,1.24
2611.15,1.61,1.19
2613.15,1.68,1.18
2615.15,1.67,1.15
2617.15,1.65,1.15
2619.15,1.58,1.14
2621.15,1.55,1.13
2623.15,1.5,1.09
2625.15,1.42,1.08
2627.15,1.45,1.17
2629.15,1.52,1.26
2630.15,1.56,1.31
2632.15,1.61,1.35
2634.15,1.58,1.34
2636.15,1.56,1.35
2638.15,1.49,1.33
2640.15,1.45,1.43
2642.15,1.35,1.4
2645.15,1.29,1.37
2647.15,1.3,1.37
2649.15,1.35,1.39
2651.15,1.37,1.37
2653.15,1.41,1.42
2655.15,1.42,1.41
2657.15,1.4,1.49
2659.15,1.43,1.54
2661.15,1.34,1.48
2663.15,1.27,1.43
2665.15,1.23,1.44
2667.15,1.26,1.49
2669.15,1.31,1.55
2671.15,1.43,1.65
2672.15,1.42,1.54
2674.15,1.41,1.45
2676.15,1.45,1.46
2678.15,1.43,1.49
2680.15,1.42,1.46
2682.15,1.32,1.35
2684.15,1.28,1.35
2687.15,1.3,1.36
2689.15,1.37,1.3
2691.15,1.41,1.35
2693.15,1.43,1.35
2695.15,1.42,1.39
2697.15,1.4,1.39
2699.15,1.46,1.36
2701.15,1.4,1.3
2703.15,1.31,1.26
2705.15,1.28,1.28
2707.15,1.33,1.45
2709.15,1.34,1.47
2711.15,1.38,1.47
2713.15,1.4,1.43
2715.15,1.44,1.4
2716.15,1.46,1.44
2718.15,1.42,1.45
2720.15,1.43,1.48
2722.15,1.34,1.38
2724.15,1.23,1.32
2726.15,1.28,1.39
2728.15,1.33,1.46
2731.15,1.36,1.43
2733.15,1.43,1.43
2735.15,1.41,1.44
2737.15,1.45,1.46
2739.15,1.45,1.35
2741.15,1.41,1.31
2743.15,1.32,1.25
2745.15,1.25,1.28
2747.15,1.27,1.43
2749.15,1.31,1.42
2751.15,1.35,1.32
2753.15,1.4,1.15
2755.15,1.4,1.15
2757.15,1.41,1.18
2758.15,1.42,1.12
2760.15,1.43,1.07
2762.15,1.37,1.01
2764.15,1.28,1.01
2766.15,1.31,1.24
2768.15,1.41,1.3
2770.15,1.44,1.41
2773.15,1.49,1.42
2775.15,1.46,1.35
2777.15,1.52,1.45
2779.15,1.47,1.49
2781.15,1.39,1.41
2783.15,1.35,1.36
2785.15,1.3,1.26
2787.15,1.31,1.24
2789.15,1.38,1.27
2791.15,1.43,1.32
2793.15,1.44,1.28
2795.15,1.46,1.33
2797.15,1.48,1.39
2799.15,1.49,1.44
2801.15,1.48,1.41
2802.15,1.4,1.36
2804.15,1.38,1.53
2806.15,1.41,1.62
2808.15,1.45,1.71
2810.15,1.5,1.73
2812.15,1.55,1.64
2815.15,1.59,1.58
2817.15,1.64,1.57
2819.15,1.62,1.54
2821.15,1.63,1.61
2823.15,1.54,1.53
2825.15,1.46,1.48
2827.15,1.46,1.47
2829.15,1.53,1.47
2831.15,1.63,1.53
2833.15,1.62,1.5
2835.15,1.57,1.44
2837.15,1.54,1.45
2839.15,1.5,1.39
2841.15,1.52,1.43
2843.15,1.45,1.37
2844.15,1.41,1.32
2846.15,1.37,1.31
2848.15,1.46,1.41
2850.15,1.5,1.38
2852.15,1.51,1.32
2854.15,1.53,1.26
2856.15,1.59,1.35
2859.15,1.56,1.36
2861.15,1.51,1.38
2863.15,1.46,1.37
2865.15,1.45,1.47
2867.15,1.45,1.6
2869.15,1.55,1.79
2871.15,1.56,1.85
2873.15,1.55,1.78
2875.15,1.51,1.73
2877.15,1.53,1.69
2879.15,1.46,1.65
2881.15,1.41,1.65
2883.15,1.36,1.55
2885.15,1.31,1.47
2887.15,1.35,1.54
2888.15,1.43,1.56
2890.15,1.45,1.59
2892.15,1.46,1.55
2894.15,1.49,1.53
2896.15,1.54,1.52
2898.15,1.5,1.56
2901.15,1.44,1.56
2903.15,1.33,1.47
2905.15,1.27,1.42
2907.15,1.31,1.51
2909.15,1.38,1.52
2911.15,1.4,1.51
2913.15,1.46,1.52
2915.15,1.47,1.49
2917.15,1.47,1.47
2919.15,1.47,1.45
2921.15,1.45,1.41
2923.15,1.36,1.32
2925.15,1.35,1.32
2927.15,1.4,1.38
2929.15,1.45,1.5
2930.15,1.5,1.48
2932.15,1.5,1.42
2934.15,1.55,1.5
2936.15,1.52,1.45
2938.15,1.51,1.44
2940.15,1.52,1.4
2943.15,1.44,1.31
2945.15,1.39,1.27
2947.15,1.43,1.31
2949.15,1.48,1.37
2951.15,1.51,1.36
2953.15,1.52,1.29
2955.15,1.51,1.29
2957.15,1.53,1.34
2959.15,1.54,1.34
2961.15,1.53,1.37
2963.15,1.45,1.29
2965.15,1.41,1.25
2967.15,1.41,1.31
2969.15,1.43,1.36
2971.15,1.53,1.44
2973.15,1.53,1.44
2974.15,1.54,1.44
2976.15,1.53,1.44
2978.15,1.55,1.48
2980.15,1.51,1.43
2982.15,1.43,1.35
2984.15,1.35,1.35
2987.15,1.36,1.43
2989.15,1.46,1.48
2991.15,1.51,1.46
2993.15,1.55,1.45
2995.15,1.59,1.49
2997.15,1.58,1.47
2999.15,1.55,1.46
3001.15,1.51,1.45
3003.15,1.39,1.38
3005.15,1.35,1.43
3007.15,1.37,1.49
3009.15,1.44,1.42
3011.15,1.48,1.35
3013.15,1.52,1.35
3015.15,1.55,1.36
3016.15,1.55,1.39
3018.15,1.55,1.45
3020.15,1.54,1.51
3022.15,1.46,1.43
3024.15,1.47,1.4
3026.15,1.48,1.38
3029.15,1.5,1.43
3031.15,1.6,1.51
3033.15,1.62,1.41
3035.15,1.62,1.4
3037.15,1.63,1.5
3039.15,1.64,1.57
3041.15,1.56,1.5
3043.15,1.46,1.39
3045.15,1.45,1.33
3047.15,1.46,1.35
3049.15,1.52,1.42
3051.15,1.65,1.42
3053.15,1.7,1.36
3055.15,1.72,1.36
3057.15,1.71,1.36
3059.15,1.65,1.33
3060.15,1.59,1.35
3062.15,1.5,1.3
3064.15,1.5,1.31
3066.15,1.48,1.37
3068.15,1.53,1.4
3071.15,1.61,1.41
3073.15,1.55,1.35
3075.15,1.52,1.37
3077.15,1.53,1.4
3079.15,1.47,1.35
3081.15,1.43,1.33
3083.15,1.36,1.34
3085.15,1.32,1.36
3087.15,1.38,1.39
3089.15,1.45,1.43
3091.15,1.51,1.48
3093.15,1.54,1.43
3095.15,1.56,1.4
3097.15,1.58,1.42
3099.15,1.55,1.42
3101.15,1.48,1.34
3103.15,1.41,1.2
3104.15,1.39,1.17
3106.15,1.42,1.21
3108.15,1.5,1.3
3110.15,1.54,1.4
3112.15,1.55,1.36
3115.15,1.59,1.41
3117.15,1.54,1.4
3119.15,1.54,1.43
3121.15,1.5,1.42
3123.15,1.41,1.3
3125.15,1.4,1.34
3127.15,1.39,1.5
3129.15,1.46,1.58
3131.15,1.51,1.6
3133.15,1.54,1.52
3135.15,1.54,1.49
3137.15,1.51,1.45
3139.15,1.47,1.48
3141.15,1.48,1.48
3143.15,1.37,1.37
3145.15,1.31,1.38
3147.15,1.3,1.48
3148.15,1.36,1.51
3150.15,1.43,1.6
3152.15,1.47,1.5
3154.15,1.47,1.43
3157.15,1.45,1.4
3159.15,1.43,1.51
3161.15,1.37,1.56
3163.15,1.3,1.51
3165.15,1.33,1.51
3167.15,1.38,1.51
3169.15,1.42,1.5
3171.15,1.46,1.48
3173.15,1.47,1.45
3175.15,1.45,1.41
3177.15,1.47,1.44
3179.15,1.49,1.48
3181.15,1.45,1.4
3183.15,1.37,1.33
3185.15,1.36,1.37
3187.15,1.36,1.45
3189.15,1.4,1.5
3191.15,1.5,1.57
3192.15,1.5,1.49
3194.15,1.5,1.51
3196.15,1.53,1.55
3199.15,1.51,1.57
3201.15,1.42,1.44
3203.15,1.34,1.36
3205.15,1.34,1.41
3207.15,1.35,1.49
3209.15,1.37,1.56
3211.15,1.44,1.57
3213.15,1.42,1.49
3215.15,1.45,1.49
3217.15,1.46,1.5
3219.15,1.45,1.53
3221.15,1.42,1.57
3223.15,1.33,1.47
3225.15,1.32,1.47
3227.15,1.35,1.44
3229.15,1.4,1.4
3231.15,1.5,1.46
3233.15,1.49,1.42
3235.15,1.48,1.42
3236.15,1.5,1.52
3238.15,1.5,1.57
3240.15,1.45,1.5
3243.15,1.35,1.41
3245.15,1.33,1.32
3247.15,1.34,1.36
3249.15,1.38,1.39
3251.15,1.48,1.47
3253.15,1.46,1.36
3255.15,1.49,1.43
3257.15,1.51,1.44
3259.15,1.44,1.43
3261.15,1.41,1.43
3263.15,1.34,1.34
3265.15,1.35,1.34
3267.15,1.36,1.37
3269.15,1.43,1.47
3271.15,1.44,1.5
3273.15,1.44,1.43
3275.15,1.45,1.42
3277.15,1.52,1.48
3278.15,1.5,1.55
3280.15,1.5,1.59
3282.15,1.4,1.55
3285.15,1.36,1.51
3287.15,1.38,1.55
3289.15,1.43,1.57
3291.15,1.47,1.61
3293.15,1.45,1.53
3295.15,1.48,1.52
3297.15,1.48,1.45
3299.15,1.46,1.43
3301.15,1.42,1.42
3303.15,1.33,1.4
3305.15,1.34,1.47
3307.15,1.35,1.49
3309.15,1.4,1.46
3311.15,1.47,1.47
3313.15,1.48,1.38
3315.15,1.5,1.46
3317.15,1.48,1.44
3319.15,1.46,1.39
3321.15,1.46,1.43
3322.15,1.35,1.38
3324.15,1.35,1.42
3327.15,1.36,1.44
3329.15,1.43,1.44
3331.15,1.5,1.47
3333.15,1.49,1.48
3335.15,1.48,1.55
3337.15,1.47,1.54
3339.15,1.42,1.46
3341.15,1.38,1.43
3343.15,1.27,1.4
3345.15,1.24,1.45
3347.15,1.29,1.46
3349.15,1.39,1.52
3351.15,1.44,1.6
3353.15,1.41,1.53
3355.15,1.41,1.5
3357.15,1.43,1.49
3359.15,1.45,1.5
3361.15,1.43,1.6
3363.15,1.31,1.54
3364.15,1.31,1.55
3366.15,1.33,1.66
3368.15,1.42,1.7
3371.15,1.49,1.73
3373.15,1.48,1.6
3375.15,1.49,1.6
3377.15,1.5,1.66
3379.15,1.48,1.58
3381.15,1.47,1.53
3383.15,1.37,1.42
3385.15,1.38,1.42
3387.15,1.39,1.43
3389.15,1.45,1.55
3391.15,1.49,1.61
3393.15,1.47,1.46
3395.15,1.49,1.45
3397.15,1.47,1.41
3399.15,1.47,1.34
3401.15,1.46,1.35
3403.15,1.37,1.31
3405.15,1.36,1.35
3407.15,1.38,1.39
3408.15,1.45,1.37
3410.15,1.48,1.44
3413.15,1.47,1.39
3415.15,1.49,1.39
3417.15,1.54,1.45
3419.15,1.49,1.4
3421.15,1.45,1.34
3423.15,1.37,1.23
3425.15,1.38,1.28
3427.15,1.39,1.4
3429.15,1.47,1.48
3431.15,1.55,1.5
3433.15,1.54,1.39
3435.15,1.55,1.41
3437.15,1.54,1.44
3439.15,1.5,1.47
3441.15,1.45,1.45
3443.15,1.35,1.33
3445.15,1.33,1.28
3447.15,1.39,1.34
3449.15,1.43,1.45
3450.15,1.56,1.65
3452.15,1.56,1.52
3455.15,1.56,1.49
3457.15,1.6,1.46
3459.15,1.6,1.43
3461.15,1.55,1.37
3463.15,1.44,1.3
3465.15,1.44,1.34
3467.15,1.44,1.39
3469.15,1.51,1.48
3471.15,1.54,1.54
3473.15,1.53,1.51
3475.15,1.5,1.56
3477.15,1.49,1.51
3479.15,1.5,1.46
3481.15,1.46,1.33
3483.15,1.37,1.31
3485.15,1.37,1.34
3487.15,1.37,1.42
3489.15,1.44,1.48
3491.15,1.53,1.56
3493.15,1.47,1.44
3494.15,1.49,1.43
3496.15,1.51,1.37
3499.15,1.5,1.41
3501.15,1.44,1.42
3503.15,1.35,1.4
3505.15,1.38,1.43
3507.15,1.4,1.53
3509.15,1.48,1.64
3511.15,1.53,1.71
3513.15,1.55,1.64
3515.15,1.57,1.62
3517.15,1.56,1.62
3519.15,1.51,1.55
3521.15,1.48,1.53
3523.15,1.35,1.44
3525.15,1.39,1.54
3527.15,1.38,1.61
3529.15,1.45,1.6
3531.15,1.51,1.59
3533.15,1.46,1.55
3535.15,1.45,1.59
3537.15,1.47,1.64
3538.15,1.39,1.57
3541.15,1.3,1.48
3543.15,1.24,1.51
3545.15,1.29,1.58
3547.15,1.35,1.65
3549.15,1.41,1.68
3551.15,1.48,1.68
3553.15,1.45,1.56
3555.15,1.46,1.54
3557.15,1.43,1.52
3559.15,1.38,1.57
3561.15,1.36,1.59
3563.15,1.26,1.49
3565.15,1.28,1.55
3567.15,1.3,1.61
3569.15,1.4,1.65
3571.15,1.45,1.65
3573.15,1.47,1.59
3575.15,1.47,1.63
3577.15,1.47,1.6
3579.15,1.46,1.55
3580.15,1.44,1.52
3583.15,1.34,1.38
3585.15,1.38,1.41
3587.15,1.41,1.43
3589.15,1.47,1.51
3591.15,1.51,1.53
3593.15,1.49,1.43
3595.15,1.52,1.45
3597.15,1.52,1.45
3599.15,1.5,1.43
3601.15,1.5,1.41
3603.15,1.4,1.31
3605.15,1.39,1.33
3607.15,1.44,1.43
3609.15,1.5,1.47
3611.15,1.58,1.51
3613.15,1.55,1.38
3615.15,1.59,1.36
3617.15,1.55,1.38
3619.15,1.48,1.39
3621.15,1.43,1.44
3623.15,1.27,1.31
3624.15,1.26,1.33
3627.15,1.3,1.38
3629.15,1.38,1.47
3631.15,1.41,1.47
3633.15,1.42,1.39
3635.15,1.43,1.43
3637.15,1.45,1.4
3639.15,1.45,1.41
3641.15,1.42,1.37
3643.15,1.31,1.35
3645.15,1.31,1.42
3647.15,1.33,1.47
3649.15,1.37,1.46
3651.15,1.44,1.49
3653.15,1.45,1.37
3655.15,1.48,1.38
3657.15,1.47,1.34
3659.15,1.42,1.36
3661.15,1.38,1.36
3663.15,1.32,1.26
3665.15,1.37,1.29
3666.15,1.38,1.35
3669.15,1.43,1.37
3671.15,1.49,1.45
3673.15,1.45,1.4
3675.15,1.46,1.4
3677.15,1.51,1.4
3679.15,1.51,1.42
3681.15,1.46,1.39
3683.15,1.38,1.32
3685.15,1.4,1.33
3687.15,1.44,1.36
3689.15,1.5,1.43
3691.15,1.59,1.5
3693.15,1.55,1.4
3695.15,1.55,1.47
3697.15,1.56,1.53
3699.15,1.52,1.47
3701.15,1.48,1.42
3703.15,1.39,1.35
3705.15,1.4,1.44
3707.15,1.51,1.54
3709.15,1.54,1.55
3711.15,1.59,1.59
3713.15,1.58,1.57
3715.15,1.58,1.61
3717.15,1.58,1.65
3719.15,1.57,1.67
3721.15,1.51,1.65
3723.15,1.44,1.57
3725.15,1.47,1.62
3727.15,1.5,1.68
3729.15,1.56,1.73
3731.15,1.6,1.69
3733.15,1.56,1.62
3735.15,1.55,1.62
3737.15,1.56,1.67
3739.15,1.53,1.67
3741.15,1.47,1.67
3743.15,1.37,1.6
3745.15,1.38,1.6
3747.15,1.4,1.61
3749.15,1.47,1.7
3751.15,1.52,1.66
3754.15,1.49,1.58
3755.15,1.53,1.64
3757.15,1.49,1.59
3759.15,1.46,1.54
3761.15,1.42,1.49
3763.15,1.34,1.41
3765.15,1.38,1.44
3767.15,1.42,1.54
3769.15,1.5,1.53
3771.15,1.56,1.47
3773.15,1.54,1.41
3775.15,1.53,1.43
3777.15,1.56,1.44
3779.15,1.51,1.44
3781.15,1.47,1.38
3783.15,1.33,1.24
3785.15,1.31,1.26
3787.15,1.39,1.36
3789.15,1.39,1.43
3791.15,1.48,1.55
3793.15,1.43,1.45
3795.15,1.49,1.43
3797.15,1.46,1.39
3799.15,1.41,1.41
3801.15,1.38,1.42
3803.15,1.3,1.41
3805.15,1.3,1.46
3807.15,1.37,1.59
3809.15,1.42,1.63
3811.15,1.46,1.56
3813.15,1.43,1.41
3815.15,1.43,1.41
3817.15,1.44,1.46
3819.15,1.4,1.51
3821.15,1.38,1.55
3823.15,1.28,1.39
3825.15,1.3,1.41
3827.15,1.32,1.4
3829.15,1.38,1.39
3831.15,1.46,1.42
3833.15,1.43,1.31
3835.15,1.41,1.35
3837.15,1.41,1.3
3840.15,1.44,1.31
3841.15,1.43,1.29
3843.15,1.32,1.18
3845.15,1.34,1.21
3847.15,1.48,1.29
3849.15,1.68,1.34
3851.15,1.83,1.42
3853.15,1.8,1.35
3855.15,1.82,1.42
3857.15,1.8,1.37
3859.15,1.75,1.34
3861.15,1.7,1.34
3863.15,1.6,1.24
3865.15,1.62,1.34
3867.15,1.63,1.41
3869.15,1.66,1.36
3871.15,1.7,1.32
3873.15,1.63,1.19
3875.15,1.59,1.28
3877.15,1.58,1.33
3879.15,1.56,1.37
3882.15,1.48,1.31
3884.15,1.39,1.24
3885.15,1.42,1.25
3887.15,1.46,1.37
3889.15,1.5,1.38
3891.15,1.56,1.4
3893.15,1.53,1.28
3895.15,1.55,1.27
3897.15,1.54,1.13
3899.15,1.5,1.08
3901.15,1.4,1.05
3903.15,1.29,0.98
3905.15,1.33,1.05
3907.15,1.35,1.11
3909.15,1.4,1.18
3911.15,1.46,1.21
3913.15,1.44,1.15
3915.15,1.43,1.19
3917.15,1.47,1.27
3919.15,1.48,1.3
3921.15,1.41,1.3
3923.15,1.3,1.19
3926.15,1.35,1.15
3927.15,1.38,1.24
3929.15,1.42,1.32
3931.15,1.52,1.36
3933.15,1.46,1.2
3935.15,1.48,1.19
3937.15,1.51,1.24
3939.15,1.45,1.24
3941.15,1.38,1.11
3943.15,1.26,1.0
3945.15,1.25,1.13
3947.15,1.29,1.21
3949.15,1.34,1.2
3951.15,1.43,1.25
3953.15,1.41,1.13
3955.15,1.42,1.19
3957.15,1.43,1.25
3959.15,1.35,1.32
3961.15,1.29,1.29
3963.15,1.17,1.24
3965.15,1.21,1.35
3968.15,1.28,1.47
3970.15,1.3,1.55
3971.15,1.32,1.49
3973.15,1.32,1.42
3975.15,1.3,1.43
3977.15,1.33,1.39
3979.15,1.32,1.32
3981.15,1.33,1.29
3983.15,1.26,1.23
3985.15,1.23,1.35
3987.15,1.3,1.46
3989.15,1.35,1.55
3991.15,1.41,1.64
3993.15,1.4,1.58
3995.15,1.45,1.61
3997.15,1.44,1.6
3999.15,1.42,1.67
4001.15,1.4,1.69
4003.15,1.32,1.54
4005.15,1.33,1.5
4007.15,1.41,1.53
4010.15,1.46,1.54
4012.15,1.5,1.58
4013.15,1.44,1.53
4015.15,1.5,1.62
4017.15,1.46,1.56
4019.15,1.43,1.47
4021.15,1.44,1.43
4023.15,1.34,1.39
4025.15,1.36,1.44
4027.15,1.38,1.43
4029.15,1.43,1.45
4031.15,1.46,1.54
4033.15,1.42,1.5
4035.15,1.45,1.52
4037.15,1.44,1.4
4039.15,1.44,1.39
4041.15,1.36,1.45
4043.15,1.27,1.42
4045.15,1.3,1.5
4047.15,1.33,1.57
4049.15,1.39,1.6
4051.15,1.47,1.6
4054.15,1.45,1.47
4056.15,1.46,1.52
4057.15,1.46,1.6
4059.15,1.43,1.67
4061.15,1.37,1.67
4063.15,1.28,1.61
4065.15,1.32,1.67
4067.15,1.41,1.84
4069.15,1.44,1.81
4071.15,1.52,1.75
4073.15,1.49,1.62
4075.15,1.46,1.62
4077.15,1.49,1.69
4079.15,1.46,1.58
4081.15,1.41,1.34
4083.15,1.31,1.29
4085.15,1.36,1.43
4087.15,1.39,1.36
4089.15,1.41,1.24
4091.15,1.5,1.25
4093.15,1.46,1.15
4096.15,1.45,1.0
4098.15,1.51,1.14
4099.15,1.46,1.14
4101.15,1.42,1.1
4103.15,1.34,1.1
4105.15,1.39,1.21
4107.15,1.47,1.3
4109.15,1.55,1.26
4111.15,1.61,1.28
4113.15,1.57,1.28
4115.15,1.56,1.38
4117.15,1.55,1.35
4119.15,1.54,1.27
4121.15,1.48,1.26
4123.15,1.4,1.19
4125.15,1.45,1.31
4127.15,1.47,1.34
4129.15,1.53,1.37
4131.15,1.6,1.44
4133.15,1.57,1.35
4135.15,1.57,1.36
4138.15,1.62,1.56
4140.15,1.56,1.63
4142.15,1.5,1.57
4143.15,1.39,1.48
4145.15,1.35,1.61
4147.15,1.36,1.58
4149.15,1.44,1.42
4151.15,1.5,1.47
4153.15,1.43,1.46
4155.15,1.45,1.56
4157.15,1.46,1.5
4159.15,1.45,1.38
4161.15,1.43,1.37
4163.15,1.35,1.38
4165.15,1.38,1.47
4167.15,1.45,1.7
4169.15,1.52,1.87
4171.15,1.56,1.85
4173.15,1.53,1.9
4175.15,1.54,2.07
4177.15,1.53,2.15
4179.15,1.53,2.13
4182.15,1.45,2.17
4184.15,1.39,2.13
4186.15,1.4,2.15
4187.15,1.41,2.24
4189.15,1.48,2.3
4191.15,1.51,2.25
4193.15,1.47,2.09
4195.15,1.46,2.16
4197.15,1.51,2.19
4199.15,1.46,2.08
4201.15,1.41,1.91
4203.15,1.34,1.92
4205.15,1.37,1.93
4207.15,1.42,1.91
4209.15,1.49,1.93
4211.15,1.55,1.93
4213.15,1.5,1.84
4215.15,1.52,1.83
4217.15,1.52,1.71
4219.15,1.49,1.66
4221.15,1.42,1.52
4224.15,1.36,1.31
4226.15,1.45,1.31
4228.15,1.45,1.33
4229.15,1.51,1.41
4231.15,1.53,1.51
4233.15,1.48,1.25
4235.15,1.5,1.28
4237.15,1.49,1.11
4239.15,1.47,0.99
4241.15,1.45,0.94
4243.15,1.34,0.93
4245.15,1.38,1.06
4247.15,1.41,1.07
4249.15,1.46,1.03
4251.15,1.59,1.17
4253.15,1.57,1.08
4255.15,1.55,1.13
4257.15,1.59,1.29
4259.15,1.55,1.45
4261.15,1.48,1.44
4263.15,1.37,1.36
4266.15,1.4,1.38
4268.15,1.44,1.47
4270.15,1.5,1.52
4271.15,1.5,1.56
4273.15,1.45,1.55
4275.15,1.44,1.54
4277.15,1.48,1.42
4279.15,1.47,1.22
4281.15,1.43,1.15
4283.15,1.33,1.02
4285.15,1.32,1.08
4287.15,1.37,1.18
4289.15,1.42,1.29
4291.15,1.47,1.32
4293.15,1.43,1.18
4295.15,1.48,1.12
4297.15,1.47,1.15
4299.15,1.46,1.07
4301.15,1.43,1.04
4303.15,1.32,1.03
4305.15,1.33,1.12
4307.15,1.4,1.22
4310.15,1.47,1.2
4312.15,1.54,1.19
4314.15,1.52,1.07
4315.15,1.51,1.13
4317.15,1.53,1.19
4319.15,1.54,1.23
4321.15,1.46,1.12
4323.15,1.36,0.98
4325.15,1.39,0.93
4327.15,1.44,0.87
4329.15,1.48,0.84
4331.15,1.52,0.85
4333.15,1.49,0.69
4335.15,1.53,0.45
4337.15,1.5,0.28
4339.15,1.52,0.26
4341.15,1.41,0.05
4343.15,1.38,0.0
4345.15,1.4,0.0
4347.15,1.45,0.0
4349.15,1.57,0.0
4352.15,1.64,0.0
4354.15,1.59,0.0
4356.15,1.57,0.0
4357.15,1.51,0.0
4359.15,1.48,0.0
4361.15,1.41,0.0
4363.15,1.36,0.0
4365.15,1.43,0.0
4367.15,1.47,0.0
4369.15,1.53,0.0
4371.15,1.61,0.0
4373.15,1.6,0.0
4375.15,1.6,0.0
4377.15,1.57,0.0
4379.15,1.56,0.0
4381.15,1.47,0.0
4383.15,1.39,0.0
4385.15,1.41,0.0
4387.15,1.47,0.0
4389.15,1.5,0.03
4391.15,1.55,0.0
4394.15,1.55,0.07
4396.15,1.64,0.24
4398.15,1.65,0.38
4400.15,1.61,0.51
4401.15,1.55,0.71
4403.15,1.53,0.87
4405.15,1.55,1.09
4407.15,1.59,1.29
4409.15,1.66,1.28
4411.15,1.76,1.3
4413.15,1.74,1.3
4415.15,1.74,1.44
4417.15,1.72,1.53
4419.15,1.7,1.56
4421.15,1.64,1.59
4423.15,1.53,1.59
4425.15,1.55,1.75
4427.15,1.54,1.81
4429.15,1.6,1.87
4431.15,1.61,1.87
4433.15,1.56,1.84
4435.15,1.56,1.88
4438.15,1.55,1.9
4440.15,1.48,1.89
4442.15,1.39,1.84
4444.15,1.25,1.82
4445.15,1.26,1.93
4447.15,1.27,1.97
4449.15,1.38,1.98
4451.15,1.45,1.9
4453.15,1.47,1.85
4455.15,1.42,1.82
4457.15,1.41,1.85
4459.15,1.36,1.92
4461.15,1.29,1.87
4463.15,1.19,1.82
4465.15,1.23,1.95
4467.15,1.29,2.0
4469.15,1.33,2.03
4471.15,1.35,2.06
4473.15,1.35,2.06
4475.15,1.38,2.02
4477.15,1.4,1.96
4480.15,1.44,1.89
4482.15,1.45,1.86
4484.15,1.42,1.84
4486.15,1.46,1.85
4487.15,1.54,1.96
4489.15,1.59,2.13
4491.15,1.63,2.14
4493.15,1.6,2.04
4495.15,1.64,2.09
4497.15,1.58,2.15
4499.15,1.53,2.2
4501.15,1.49,2.23
4503.15,1.39,2.21
4505.15,1.41,2.29
4507.15,1.45,2.42
4509.15,1.51,2.54
4511.15,1.51,2.64
4513.15,1.45,2.63
4515.15,1.5,2.64
4517.15,1.47,2.54
4519.15,1.41,2.42
4522.15,1.37,2.37
4524.15,1.35,2.33
4526.15,1.35,2.35
4528.15,1.37,2.35
4530.15,1.44,2.34
4531.15,1.49,2.28
4533.15,1.47,2.2
4535.15,1.5,2.14
4537.15,1.47,2.0
4539.15,1.47,1.96
4541.15,1.4,1.92
4543.15,1.32,1.93
4545.15,1.27,1.9
4547.15,1.38,2.11
4549.15,1.41,2.22
4551.15,1.43,2.26
4553.15,1.4,2.31
4555.15,1.41,2.27
4557.15,1.42,2.14
4559.15,1.38,2.07
4561.15,1.36,2.02
4563.15,1.31,1.95
4566.15,1.31,1.93
4568.15,1.38,2.05
4570.15,1.42,2.09
4572.15,1.41,2.09
4573.15,1.35,2.02
4575.15,1.36,2.0
4577.15,1.38,1.99
4579.15,1.36,2.04
4581.15,1.28,2.06
4583.15,1.23,2.12
4585.15,1.23,2.25
4587.15,1.31,2.36
4589.15,0.0,1.72
4591.15,0.0,1.73
4593.15,0.0,1.68
4595.15,0.0,1.65
4597.15,0.0,1.52
4599.15,0.0,1.53
4601.15,0.01,1.6
4603.15,0.0,1.61
4605.15,0.05,1.75
4608.15,0.18,1.86
4610.15,0.3,1.86
4612.15,0.49,1.91
4614.15,0.61,1.9
4616.15,0.67,2.05
4617.15,0.84,2.16
4619.15,0.78,2.14
4621.15,0.76,2.01
4623.15,0.93,2.01
4625.15,0.89,2.06
4627.15,1.49,2.38
4629.15,2.93,2.98
4631.15,3.03,2.97
4633.15,2.93,2.86
4635.15,2.81,2.81
4637.15,2.68,2.73
4639.15,2.56,2.71
4641.15,2.4,2.58
4643.15,2.23,2.44
4645.15,2.24,2.59
4647.15,2.22,2.71
4650.15,2.18,2.69
4652.15,2.16,2.66
4654.15,2.06,2.58
4656.15,2.04,2.45
4658.15,1.96,2.38
4660.15,1.87,2.3
4661.15,1.78,2.18
4663.15,1.7,2.1
4665.15,1.72,2.16
4667.15,1.72,2.22
4669.15,1.77,2.31
4671.15,1.78,2.18
4673.15,1.74,2.08
4675.15,1.76,2.08
4677.15,1.73,2.07
4679.15,1.66,2.04
4681.15,1.56,1.94
4683.15,1.48,1.82
4685.15,1.48,1.77
4687.15,1.56,1.7
4689.15,1.68,1.7
4691.15,1.73,1.69
4694.15,1.7,1.65
4696.15,1.72,1.51
4698.15,1.71,1.36
4700.15,1.69,1.25
4702.15,1.61,1.14
4704.15,1.53,1.1
4705.15,1.52,1.09
4707.15,1.58,1.08
4709.15,1.63,1.1
4711.15,1.6,1.03
4713.15,1.56,0.99
4715.15,1.55,1.05
4717.15,1.52,1.04
4719.15,1.53,0.93
4721.15,1.45,0.85
4723.15,1.4,0.84
4725.15,1.36,0.86
4727.15,1.41,0.91
4729.15,1.5,0.98
4731.15,1.55,0.97
4733.15,1.53,0.94
4736.15,1.54,1.03
4738.15,1.48,0.97
4740.15,1.43,0.89
4742.15,1.35,0.82
4744.15,1.29,0.84
4746.15,1.26,0.91
4747.15,1.3,1.04
4749.15,1.32,1.01
4751.15,1.33,0.93
4753.15,1.36,0.84
4755.15,1.38,0.89
4757.15,1.38,0.96
4759.15,1.39,0.95
4761.15,1.28,0.83
4763.15,1.23,0.9
4765.15,1.23,0.98
4767.15,1.35,1.08
4769.15,1.44,1.13
4771.15,1.45,1.11
4773.15,1.41,1.07
4775.15,1.46,1.06
4778.15,1.49,1.14
4780.15,1.45,1.2
4782.15,1.36,1.17
4784.15,1.34,1.05
4786.15,1.35,1.0
4788.15,1.42,1.09
4790.15,1.48,1.16
4791.15,1.5,1.19
4793.15,1.48,1.12
4795.15,1.5,1.2
4797.15,1.52,1.22
4799.15,1.47,1.15
4801.15,1.39,0.98
4803.15,1.36,0.94
4805.15,1.4,1.04
4807.15,1.45,1.08
4809.15,1.51,1.07
4811.15,1.51,1.04
4813.15,1.53,1.1
4815.15,1.48,1.13
4817.15,1.46,1.14
4819.15,1.46,1.12
4822.15,1.35,1.03
4824.15,1.29,1.03
4826.15,1.31,1.12
4828.15,1.37,1.16
4830.15,1.45,1.17
4832.15,1.49,1.11
4834.15,1.51,1.03
4835.15,1.51,1.08
4837.15,1.54,1.17
4839.15,1.53,1.25
4841.15,1.44,1.24
4843.15,1.4,1.2
4845.15,1.39,1.21
4847.15,1.43,1.28
4849.15,1.47,1.4
4851.15,1.54,1.39
4853.15,1.54,1.36
4855.15,1.53,1.35
4857.15,1.53,1.32
4859.15,1.48,1.25
4861.15,1.36,1.2
4864.15,1.33,1.32
4866.15,1.37,1.3
4868.15,1.43,1.24
4870.15,1.48,1.29
4872.15,1.45,1.25
4874.15,1.4,1.24
4876.15,1.48,1.32
4877.15,1.45,1.36
4879.15,1.35,1.39
4881.15,1.3,1.33
4883.15,1.22,1.3
4885.15,1.24,1.31
4887.15,1.32,1.33
4889.15,1.43,1.39
4891.15,1.41,1.28
4893.15,1.43,1.25
4895.15,1.45,1.37
4897.15,1.46,1.33
4899.15,1.4,1.25
4901.15,1.32,1.22
4903.15,1.27,1.24
4906.15,1.3,1.3
4908.15,1.38,1.26
4910.15,1.46,1.34
4912.15,1.47,1.37
4914.15,1.46,1.43
4916.15,1.48,1.53
4918.15,1.46,1.44
4919.15,1.43,1.28
4921.15,1.38,1.21
4923.15,1.35,1.35
4925.15,1.39,1.55
4927.15,1.45,1.59
4929.15,1.51,1.65
4931.15,1.5,1.59
4933.15,1.47,1.61
4935.15,1.44,1.65
4937.15,1.39,1.63
4939.15,1.36,1.62
4941.15,1.28,1.47
4943.15,1.28,1.48
4945.15,1.29,1.56
4947.15,1.37,1.68
4950.15,1.44,1.75
4952.15,1.45,1.64
4954.15,1.45,1.65
4956.15,1.52,1.75
4958.15,1.55,1.75
4960.15,1.5,1.74
4962.15,1.39,1.63
4964.15,1.42,1.66
4965.15,1.4,1.7
4967.15,1.48,1.73
4969.15,1.51,1.72
4971.15,1.51,1.64
4973.15,1.48,1.56
4975.15,1.45,1.52
4977.15,1.46,1.53
4979.15,1.5,1.52
4981.15,1.4,1.45
4983.15,1.34,1.47
4985.15,1.36,1.56
4987.15,1.41,1.62
4989.15,1.43,1.79
4992.15,1.43,1.78
4994.15,1.41,1.67
4996.15,1.42,1.61
4998.15,1.41,1.53
5000.15,1.36,1.39
5002.15,1.33,1.34
5004.15,1.35,1.41
5006.15,1.35,1.42
5007.15,1.4,1.43
5009.15,1.47,1.45
5011.15,1.46,1.39
5013.15,1.47,1.49
5015.15,1.49,1.52
5017.15,1.46,1.56
5019.15,1.44,1.57
5021.15,1.36,1.51
5023.15,1.36,1.52
5025.15,1.37,1.45
5027.15,1.46,1.51
5029.15,1.53,1.69
5031.15,1.52,1.64
5034.15,1.51,1.58
5036.15,1.55,1.56
5038.15,1.5,1.54
5040.15,1.47,1.53
5042.15,1.37,1.41
5044.15,1.36,1.39
5046.15,1.39,1.46
5048.15,1.46,1.54
5050.15,1.49,1.5
5051.15,1.48,1.49
5053.15,1.47,1.52
5055.15,1.47,1.54
5057.15,1.45,1.5
5059.15,1.45,1.45
5061.15,1.35,1.3
5063.15,1.34,1.32
5065.15,1.34,1.36
5067.15,1.43,1.4
5069.15,1.48,1.34
5071.15,1.47,1.25
5073.15,1.47,1.22
5075.15,1.47,1.22
5078.15,1.45,1.23
5080.15,1.44,1.21
5082.15,1.37,1.07
5084.15,1.37,1.09
5086.15,1.45,1.12
5088.15,1.55,1.15
5090.15,1.63,1.29
5092.15,1.65,1.29
5094.15,1.67,1.38
5095.15,1.66,1.35
5097.15,1.63,1.28
5099.15,1.61,1.13
5101.15,1.53,1.07
5103.15,1.53,1.24
5105.15,1.56,1.31
5107.15,1.57,1.36
5109.15,1.62,1.44
5111.15,1.57,1.45
5113.15,1.55,1.41
5115.15,1.53,1.34
5117.15,1.54,1.32
5120.15,1.52,1.31
5122.15,1.39,1.25
5124.15,1.37,1.38
5126.15,1.42,1.57
5128.15,1.42,1.5
5130.15,1.45,1.46
5132.15,1.48,1.36
5134.15,1.48,1.48
5136.15,1.47,1.57
5138.15,1.43,1.62
5139.15,1.42,1.5
5141.15,1.36,1.42
5143.15,1.39,1.42
5145.15,1.39,1.49
5147.15,1.43,1.57
5149.15,1.49,1.73
5151.15,1.47,1.64
5153.15,1.42,1.62
5155.15,1.43,1.62
5157.15,1.45,1.74
5159.15,1.43,1.71
5162.15,1.31,1.64
5164.15,1.29,1.62
5166.15,1.32,1.66
5168.15,1.37,1.69
5170.15,1.45,1.66
5172.15,1.44,1.59
5174.15,1.44,1.63
5176.15,1.47,1.62
5178.15,1.47,1.53
5180.15,1.44,1.55
5182.15,1.38,1.56
5183.15,1.43,1.52
5185.15,1.47,1.52
5187.15,1.54,1.57
5189.15,1.57,1.63
5191.15,1.55,1.51
5193.15,1.55,1.49
5195.15,1.52,1.49
5197.15,1.52,1.36
5199.15,1.48,1.33
5201.15,1.4,1.35
5203.15,1.38,1.32
5206.15,1.38,1.42
5208.15,1.41,1.51
5210.15,1.46,1.75
5212.15,1.44,1.78
5214.15,1.45,1.82
5216.15,1.46,1.91
5218.15,1.45,1.77
5220.15,1.37,1.72
5222.15,1.25,1.79
5224.15,1.27,1.89
5225.15,1.34,1.99
5227.15,1.43,2.07
5229.15,1.5,2.05
5231.15,1.44,1.83
5233.15,1.42,1.85
5235.15,1.4,2.05
5237.15,1.38,2.39
5239.15,1.35,2.22
5241.15,1.28,1.97
5243.15,1.29,2.05
5245.15,1.27,2.07
5248.15,1.39,2.03
5250.15,1.42,2.03
5252.15,1.38,1.96
5254.15,1.39,1.99
5256.15,1.39,2.12
5258.15,1.34,2.09
5260.15,1.31,2.04
5262.15,1.19,1.89
5264.15,1.18,1.85
5266.15,1.22,1.77
5268.15,1.35,2.03
5269.15,1.42,2.13
5271.15,1.44,1.96
5273.15,1.43,1.85
5275.15,1.44,2.18
5277.15,1.43,2.24
5279.15,1.43,2.09
5281.15,1.34,1.97
5283.15,1.35,1.95
5285.15,1.38,2.07
5287.15,1.44,2.13
5290.15,1.5,2.18
5292.15,1.49,2.1
5294.15,1.5,2.07
5296.15,1.45,1.93
5298.15,1.4,1.87
5300.15,1.4,1.91
5302.15,1.3,1.67
5304.15,1.32,1.4
5306.15,1.35,1.27
5308.15,1.43,1.34
5310.15,1.51,1.45
5311.15,1.51,1.3
5313.15,1.52,1.22
5315.15,1.52,1.27
5317.15,1.51,1.31
5319.15,1.49,1.22
5321.15,1.4,1.05
5323.15,1.39,1.04
5325.15,1.4,0.99
5327.15,1.45,0.85
5329.15,1.54,0.68
5331.15,1.55,0.62
5334.15,1.61,0.51
5336.15,1.64,0.45
5338.15,1.63,0.4
5340.15,1.6,0.36
5342.15,1.46,0.26
5344.15,1.42,0.04
5346.15,1.47,0.0
5348.15,1.49,0.0
5350.15,1.55,0.0
5352.15,1.54,0.0
5354.15,1.59,0.0
5355.15,1.6,0.0
5357.15,1.58,0.0
5359.15,1.53,0.0
5361.15,1.46,0.0
5363.15,1.46,0.0
5365.15,1.45,0.0
5367.15,1.52,0.0
5369.15,1.58,0.0
5371.15,1.59,0.0
5373.15,1.56,0.0
5376.15,1.55,0.0
5378.15,1.48,0.0
5380.15,1.42,0.0
5382.15,1.37,0.0
5384.15,1.42,0.0
5386.15,1.42,0.0
5388.15,1.44,0.0
5390.15,1.48,0.0
5392.15,1.47,0.0
5394.15,1.49,0.0
5396.15,1.55,0.0
5398.15,1.55,0.0
5399.15,1.54,0.0
5401.15,1.47,0.0
5403.15,1.51,0.0
5405.15,1.53,0.0
5407.15,1.62,0.0
5409.15,1.68,0.0
5411.15,1.7,0.0
5413.15,1.72,0.0
5415.15,1.72,0.0
5418.15,1.67,0.0
5420.15,1.65,0.14
5422.15,1.53,0.15
5424.15,1.59,0.32
5426.15,1.57,0.55
5428.15,1.65,0.78
5430.15,1.72,1.05
5432.15,1.67,1.13
5434.15,1.68,1.35
5436.15,1.68,1.44
5438.15,1.62,1.39
5440.15,1.6,1.45
5442.15,1.48,1.36
5443.15,1.44,1.36
5445.15,1.49,1.45
5447.15,1.57,1.62
5449.15,1.64,1.7
5451.15,1.61,1.58
5453.15,1.66,1.62
5455.15,1.66,1.71
5457.15,1.62,1.73
5459.15,1.56,1.85
5462.15,1.42,1.93
5464.15,1.45,2.13
5466.15,1.44,2.2
5468.15,1.45,2.24
5470.15,1.55,2.35
5472.15,1.53,2.3
5474.15,1.49,2.36
5476.15,1.46,2.38
5478.15,1.45,2.41
5480.15,1.43,2.4
5482.15,1.35,2.33
5484.15,1.36,2.32
5485.15,1.44,2.34
5487.15,1.52,2.33
5489.15,1.6,2.28
5491.15,1.56,2.18
5493.15,1.59,2.25
5495.15,1.57,2.38
5497.15,1.54,2.41
5499.15,1.5,2.36
5501.15,1.36,2.13
5504.15,1.33,2.15
5506.15,1.37,2.33
5508.15,1.39,2.39
5510.15,1.45,2.45
5512.15,1.45,2.38
5514.15,1.45,2.46
5516.15,1.43,2.53
5518.15,1.41,2.42
5520.15,1.35,2.39
5522.15,1.24,2.37
5524.15,1.28,2.39
5526.15,1.31,2.47
5528.15,1.35,2.44
5529.15,1.39,2.36
5531.15,1.4,2.22
5533.15,1.44,2.2
5535.15,1.44,2.17
5537.15,1.46,2.18
5539.15,1.41,2.17
5541.15,1.27,2.17
5543.15,1.27,2.24
5546.15,1.33,2.34
5548.15,1.35,2.24
5550.15,1.4,2.34
5552.15,1.38,2.3
5554.15,1.42,2.53
5556.15,1.38,2.52
5558.15,1.35,2.46
5560.15,1.3,2.37
5562.15,1.21,2.39
5564.15,1.24,2.46
5566.15,1.27,2.53
5568.15,1.31,2.69
5570.15,1.39,2.99
5572.15,1.38,3.0
5573.15,1.34,3.07
5575.15,1.36,3.08
5577.15,1.27,2.95
5579.15,1.19,2.84
5581.15,1.11,2.8
5583.15,1.11,2.89
5585.15,1.14,3.03
5587.15,1.2,2.94
5590.15,1.3,2.86
5592.15,1.25,2.75
5594.15,1.25,2.72
5596.15,1.24,2.7
5598.15,1.19,2.62
5600.15,1.2,2.65
5602.15,1.11,2.5
5604.15,1.12,2.39
5606.15,1.17,2.4
5608.15,1.23,2.39
5610.15,1.31,2.38
5612.15,1.29,2.14
5614.15,1.32,2.08
5616.15,1.32,1.87
5617.15,1.29,1.78
5619.15,1.24,1.86
5621.15,1.14,1.87
5623.15,1.15,1.83
5625.15,1.21,1.65
5627.15,1.28,1.54
5629.15,1.38,1.63
5632.15,1.37,1.55
5634.15,1.4,1.51
5636.15,1.44,1.48
5638.15,1.42,1.4
5640.15,1.4,1.33
5642.15,1.33,1.29
5644.15,1.39,1.34
5646.15,1.4,1.36
5648.15,1.49,1.45
5650.15,1.54,1.39
5652.15,1.51,1.28
5654.15,1.52,1.25
5656.15,1.55,1.18
5658.15,1.56,1.24
5660.15,1.5,1.25
5661.15,1.43,1.14
5663.15,1.45,1.18
5665.15,1.47,1.22
5667.15,1.56,1.27
5669.15,1.63,1.39
5671.15,1.58,1.36
5674.15,1.56,1.38
5676.15,1.53,1.45
5678.15,1.47,1.55
5680.15,1.42,1.51
5682.15,1.33,1.44
5684.15,1.37,1.56
5686.15,1.43,1.57
5688.15,1.47,1.55
5690.15,1.57,1.48
5692.15,1.57,1.25
5694.15,1.59,1.19
5696.15,1.61,1.19
5698.15,1.54,1.12
5700.15,1.4,1.08
5702.15,1.32,1.07
5703.15,1.3,1.07
5705.15,1.35,1.13
5707.15,1.45,1.07
5709.15,1.51,0.9
5711.15,1.48,0.74
5713.15,1.51,0.86
5715.15,1.52,0.88
5718.15,1.5,0.89
5720.15,1.43,0.85
5722.15,1.31,0.77
5724.15,1.35,0.82
5726.15,1.39,0.94
5728.15,1.48,1.07
5730.15,1.53,1.08
5732.15,1.5,0.96
5734.15,1.52,0.99
5736.15,1.52,0.99
5738.15,1.51,1.15
5740.15,1.48,1.2
5742.15,1.38,1.15
5744.15,1.36,1.17
5746.15,1.47,1.37
5747.15,1.52,1.45
5749.15,1.57,1.46
5751.15,1.53,1.35
5753.15,1.55,1.48
5755.15,1.53,1.52
5757.15,1.49,1.58
5760.15,1.47,1.6
5762.15,1.37,1.53
5764.15,1.39,1.55
5766.15,1.46,1.53
5768.15,1.5,1.53
5770.15,1.57,1.63
5772.15,1.55,1.57
5774.15,1.52,1.56
5776.15,1.53,1.56
5778.15,1.51,1.53
5780.15,1.49,1.46
5782.15,1.41,1.39
5784.15,1.4,1.37
5786.15,1.47,1.44
5788.15,1.51,1.49
5790.15,1.55,1.53
5791.15,1.51,1.5
5793.15,1.54,1.55
5795.15,1.55,1.47
5797.15,1.54,1.45
5799.15,1.48,1.31
5802.15,1.36,1.18
5804.15,1.4,1.26
5806.15,1.45,1.32
5808.15,1.46,1.36
5810.15,1.52,1.35
5812.15,1.54,1.25
5814.15,1.55,1.29
5816.15,1.51,1.29
5818.15,1.53,1.3
5820.15,1.5,1.19
5822.15,1.41,1.07
5824.15,1.43,1.2
5826.15,1.45,1.19
5828.15,1.51,1.16
5830.15,1.55,1.25
5832.15,1.54,1.26
5833.15,1.57,1.34
5835.15,1.53,1.36
5837.15,1.53,1.33
5839.15,1.48,1.34
5841.15,1.39,1.27
5843.15,1.41,1.26
5846.15,1.46,1.25
5848.15,1.53,1.33
5850.15,1.57,1.42
5852.15,1.55,1.42
5854.15,1.56,1.48
5856.15,1.55,1.45
5858.15,1.51,1.31
5860.15,1.46,1.24
5862.15,1.36,1.17
5864.15,1.39,1.26
5866.15,1.4,1.27
5868.15,1.45,1.28
5870.15,1.52,1.32
5872.15,1.49,1.26
5874.15,1.39,1.26
5876.15,1.45,1.23
5877.15,1.48,1.26
5879.15,1.43,1.23
5881.15,1.36,1.18
5883.15,1.39,1.27
5885.15,1.39,1.35
5888.15,1.46,1.39
5890.15,1.49,1.36
5892.15,1.44,1.26
5894.15,1.45,1.3
5896.15,1.47,1.36
5898.15,1.46,1.38
5900.15,1.38,1.27
5902.15,1.3,1.15
5904.15,1.33,1.19
5906.15,1.36,1.25
5908.15,1.41,1.3
5910.15,1.5,1.37
5912.15,1.47,1.29
5914.15,1.48,1.26
5916.15,1.46,1.15
5918.15,1.44,1.16
5919.15,1.39,1.17
5921.15,1.3,1.16
5923.15,1.35,1.25
5925.15,1.41,1.37
5927.15,1.48,1.42
5930.15,1.53,1.46
5932.15,1.52,1.45
5934.15,1.53,1.51
5936.15,1.52,1.53
5938.15,1.45,1.52
5940.15,1.42,1.48
5942.15,1.33,1.39
5944.15,1.34,1.49
5946.15,1.41,1.57
5948.15,1.53,1.53
5950.15,1.58,1.45
5952.15,1.55,1.41
5954.15,1.56,1.45
5956.15,1.56,1.42
5958.15,1.46,1.42
5960.15,1.42,1.47
5962.15,1.33,1.47
5963.15,1.36,1.44
5965.15,1.43,1.47
5967.15,1.52,1.57
5969.15,1.57,1.45
5971.15,1.56,1.36
5974.15,1.53,1.41
5976.15,1.59,1.49
5978.15,1.52,1.5
5980.15,1.47,1.53
5982.15,1.4,1.48
5984.15,1.41,1.42
5986.15,1.45,1.41
5988.15,1.46,1.43
5990.15,1.49,1.43
5992.15,1.47,1.44
5994.15,1.47,1.46
5996.15,1.51,1.43
5998.15,1.5,1.35
6000.15,1.46,1.29
6002.15,1.37,1.27
6004.15,1.41,1.35
6006.15,1.48,1.4
6007.15,1.51,1.37
6009.15,1.54,1.35
6011.15,1.54,1.33
6013.15,1.55,1.35
6016.15,1.53,1.35
6018.15,1.52,1.44
6020.15,1.46,1.46
6022.15,1.35,1.35
6024.15,1.37,1.43
6026.15,1.44,1.56
6028.15,1.5,1.63
6030.15,1.56,1.57
6032.15,1.58,1.43
6034.15,1.56,1.48
6036.15,1.52,1.54
6038.15,1.48,1.42
6040.15,1.4,1.38
6042.15,1.28,1.45
6044.15,1.32,1.67
6046.15,1.36,1.65
6048.15,1.43,1.47
6050.15,1.48,1.51
6051.15,1.45,1.56
6053.15,1.48,1.66
6055.15,1.46,1.62
6058.15,1.43,1.58
6060.15,1.36,1.46
6062.15,1.3,1.46
6064.15,1.35,1.52
6066.15,1.41,1.63
6068.15,1.44,1.59
6070.15,1.46,1.64
6072.15,1.44,1.68
6074.15,1.44,1.7
6076.15,1.49,1.85
6078.15,1.46,1.98
6080.15,1.36,1.78
6082.15,1.32,1.62
6084.15,1.36,1.8
6086.15,1.45,1.93
6088.15,1.51,1.77
6090.15,1.54,1.75
6092.15,1.51,1.76
6094.15,1.49,1.83
6095.15,1.55,1.82
6097.15,1.55,2.02
6099.15,1.46,1.97
6102.15,1.42,1.66
6104.15,1.41,1.58
6106.15,1.47,1.75
6108.15,1.5,1.68
6110.15,1.51,1.75
6112.15,1.53,1.82
6114.15,1.49,1.83
6116.15,1.43,1.69
6118.15,1.41,1.36
6120.15,1.44,1.16
6122.15,1.38,1.18
6124.15,1.37,1.28
6126.15,1.4,1.23
6128.15,1.5,1.34
6130.15,1.55,1.36
6132.15,1.58,1.47
6134.15,1.58,1.75
6136.15,1.54,1.63
6138.15,1.49,1.51
6139.15,1.42,1.32
6141.15,1.33,1.27
6144.15,1.32,0.99
6146.15,1.37,1.0
6148.15,1.48,1.32
6150.15,1.5,1.26
6152.15,1.45,1.04
6154.15,1.46,0.97
6156.15,1.44,1.12
6158.15,1.39,1.12
6160.15,1.36,0.99
6162.15,1.32,0.91
6164.15,1.34,0.96
6166.15,1.41,1.06
6168.15,1.53,1.2
6170.15,1.54,1.29
6172.15,1.5,1.15
6174.15,1.51,1.02
6176.15,1.53,1.1
6178.15,1.52,0.95
6180.15,1.45,0.72
6182.15,1.4,0.61
6183.15,1.42,0.62
6186.15,1.52,0.67
6188.15,1.56,0.77
6190.15,1.62,0.79
6192.15,1.63,0.89
6194.15,1.66,1.05
6196.15,1.65,1.05
6198.15,1.6,0.93
6200.15,1.54,0.94
6202.15,1.5,0.92
6204.15,1.5,1.13
6206.15,1.58,1.25
6208.15,1.62,1.15
6210.15,1.65,1.01
6212.15,1.61,1.15
6214.15,1.6,1.34
6216.15,1.6,1.37
6218.15,1.61,1.54
6220.15,1.58,1.31
6222.15,1.56,1.08
6224.15,1.6,1.07
6226.15,1.7,1.22
6227.15,1.75,1.16
6230.15,1.74,1.26
6232.15,1.73,1.18
6234.15,1.74,1.14
6236.15,1.67,1.05
6238.15,1.64,0.98
6240.15,1.56,0.83
6242.15,1.49,0.64
6244.15,1.5,0.5
6246.15,1.56,0.61
6248.15,1.6,0.89
6250.15,1.64,1.24
6252.15,1.61,1.29
6254.15,1.61,1.31
6256.15,1.55,1.63
6258.15,1.51,1.82
6260.15,1.39,1.69
6262.15,0.0,1.23
6264.15,0.0,1.24
6266.15,0.0,1.24
6268.15,0.0,1.08
6269.15,0.04,1.1
6272.15,0.16,1.06
6274.15,0.39,0.75
6276.15,0.37,0.29
6278.15,0.41,0.03
6280.15,0.43,0.0
6282.15,0.46,0.0
6284.15,0.61,0.0
6286.15,0.76,0.0
6288.15,0.9,0.0
6290.15,1.13,0.0
6292.15,1.16,0.0
6294.15,1.24,0.0
6296.15,1.49,0.0
6298.15,1.37,0.0
6300.15,2.18,0.0
6302.15,3.25,0.07
6304.15,3.29,0.05
6306.15,3.27,0.12
6308.15,3.2,0.04
6310.15,3.08,0.0
6312.15,2.94,0.08
6314.15,2.85,0.2
6316.15,2.72,0.19
6318.15,2.57,0.08
6320.15,2.43,0.0
6322.15,2.31,0.0
6324.15,2.22,0.19
6326.15,2.18,0.25
6328.15,2.19,0.35
6330.15,2.17,0.39
6332.15,2.1,0.38
6334.15,2.06,0.33
6336.15,2.03,0.36
6338.15,1.94,0.27
6340.15,1.81,0.2
6342.15,1.72,0.23
6344.15,1.69,0.31
6346.15,1.7,0.38
6348.15,1.79,0.43
6350.15,1.75,0.42
6352.15,1.73,0.57
6354.15,1.69,0.66
6357.15,1.69,0.74
6358.15,1.63,0.84
6360.15,1.48,0.85
6362.15,1.43,0.82
6364.15,1.46,0.87
6366.15,1.51,0.88
6368.15,1.59,1.0
6370.15,1.61,1.11
6372.15,1.58,1.31
6374.15,1.59,1.72
6376.15,1.51,1.87
6378.15,1.48,2.01
6380.15,1.4,2.11
6382.15,1.38,2.16
6384.15,1.36,2.2
6386.15,1.44,2.32
6388.15,1.49,2.39
6390.15,1.44,2.33
6392.15,1.45,2.38
6394.15,1.48,2.34
6396.15,1.44,2.26
6399.15,1.32,2.06
6401.15,1.26,1.97
6402.15,1.25,1.93
6404.15,1.27,1.98
6406.15,1.34,1.99
6408.15,1.39,1.99
6410.15,1.4,2.1
6412.15,1.38,2.24
6414.15,1.44,2.21
6416.15,1.46,1.97
6418.15,1.38,1.79
6420.15,1.3,1.75
6422.15,1.26,1.9
6424.15,1.23,1.99
6426.15,1.35,2.09
6428.15,1.41,2.19
6430.15,1.38,2.16
6432.15,1.36,2.08
6434.15,1.35,2.16
6436.15,1.33,2.21
6438.15,1.33,2.24
6440.15,1.23,2.23
6443.15,1.16,2.17
6445.15,1.14,2.17
6446.15,1.24,2.21
6448.15,1.29,2.28
6450.15,1.28,2.23
6452.15,1.27,2.24
6454.15,1.29,2.27
6456.15,1.29,2.26
6458.15,1.25,2.25
6460.15,1.16,2.26
6462.15,1.14,2.26
6464.15,1.15,2.26
6466.15,1.2,2.28
6468.15,1.28,2.19
6470.15,1.28,2.03
6472.15,1.32,1.94
6474.15,1.35,2.17
6476.15,1.31,2.42
6478.15,1.26,2.57
6480.15,1.18,2.54
6482.15,1.18,2.63
6485.15,1.21,2.82
6487.15,1.25,2.93
6488.15,1.29,2.94
6490.15,1.31,2.95
6492.15,1.31,2.96
6494.15,1.31,3.0
6496.15,1.32,2.95
6498.15,1.33,2.85
6500.15,1.26,2.86
6502.15,1.25,3.03
6504.15,1.26,3.01
6506.15,1.3,3.15
6508.15,1.33,3.2
6510.15,1.37,3.14
6512.15,1.33,3.04
6514.15,1.34,3.19
6516.15,1.33,3.3
6518.15,1.32,3.3
6520.15,1.22,3.12
6522.15,1.17,2.95
6524.15,1.17,2.83
6527.15,1.24,2.89
6529.15,1.26,2.89
6531.15,1.29,2.75
6532.15,1.3,2.69
6534.15,1.25,2.74
6536.15,1.21,2.75
6538.15,1.15,2.7
6540.15,1.05,2.65
6542.15,0.97,2.6
6544.15,1.0,2.69
6546.15,1.02,2.8
6548.15,1.06,2.82
6550.15,1.11,2.92
6552.15,1.18,2.86
6554.15,1.2,2.68
6556.15,1.18,2.53
6558.15,1.18,2.44
6560.15,1.09,2.33
6562.15,1.12,2.14
6564.15,1.2,2.09
6566.15,1.3,1.95
6568.15,1.36,1.95
6571.15,1.39,1.91
6573.15,1.42,1.89
6574.15,1.39,1.76
6576.15,1.39,1.66
6578.15,1.39,1.8
6580.15,1.31,1.98
6582.15,1.26,2.12
6584.15,1.31,2.3
6586.15,1.4,2.25
6588.15,1.45,2.1
6590.15,1.46,1.96
6592.15,1.44,1.98
6594.15,1.43,2.02
6596.15,1.45,1.95
6598.15,1.46,1.93
6600.15,1.41,1.82
6602.15,1.37,1.75
6604.15,1.4,1.73
6606.15,1.52,1.71
6608.15,1.57,1.6
6610.15,1.58,1.53
6613.15,1.63,1.6
6615.15,1.66,1.7
6617.15,1.64,1.7
6618.15,1.59,1.68
6620.15,1.5,1.66
6622.15,1.49,1.7
6624.15,1.47,1.64
6626.15,1.47,1.6
6628.15,1.51,1.68
6630.15,1.52,1.78
6632.15,1.54,1.84
6634.15,1.55,1.77
6636.15,1.55,1.65
6638.15,1.55,1.59
6640.15,1.44,1.55
6642.15,1.42,1.57
6644.15,1.43,1.57
6646.15,1.52,1.61
6648.15,1.58,1.62
6650.15,1.55,1.47
6652.15,1.58,1.35
6655.15,1.6,1.42
6657.15,1.56,1.47
6659.15,1.51,1.42
6660.15,1.39,1.33
6662.15,1.38,1.32
6664.15,1.41,1.4
6666.15,1.45,1.46
6668.15,1.53,1.57
6670.15,1.55,1.58
6672.15,1.51,1.63
6674.15,1.53,1.67
6676.15,1.55,1.61
6678.15,1.52,1.48
6680.15,1.45,1.39
6682.15,1.47,1.39
6684.15,1.46,1.45
6686.15,1.5,1.54
6688.15,1.55,1.57
6690.15,1.51,1.37
6692.15,1.49,1.25
6694.15,1.52,1.23
6696.15,1.45,1.13
6699.15,1.43,1.06
6701.15,1.36,1.0
6703.15,1.34,1.07
6704.15,1.35,1.2
6706.15,1.43,1.24
6708.15,1.49,1.27
6710.15,1.48,1.18
6712.15,1.5,1.15
6714.15,1.48,1.23
6716.15,1.45,1.25
6718.15,1.39,1.17
6720.15,1.27,1.0
6722.15,1.3,0.93
6724.15,1.33,0.93
6726.15,1.42,1.04
6728.15,1.49,1.07
6730.15,1.48,1.05
6732.15,1.47,1.07
6734.15,1.5,1.1
6736.15,1.41,1.11
6738.15,1.34,1.05
6741.15,1.29,1.0
6743.15,1.31,0.95
6745.15,1.37,0.95
6747.15,1.46,1.06
6748.15,1.48,1.15
6750.15,1.49,1.06
6752.15,1.53,1.09
6754.15,1.54,1.06
6756.15,1.49,1.02
6758.15,1.44,1.07
6760.15,1.34,1.05
6762.15,1.33,0.99
6764.15,1.43,1.03
6766.15,1.55,1.07
6768.15,1.58,1.1
6770.15,1.55,1.05
6772.15,1.52,1.2
6774.15,1.52,1.25
6776.15,1.51,1.27
6778.15,1.47,1.15
6780.15,1.36,1.0
6783.15,1.36,1.14
6785.15,1.38,1.17
6787.15,1.47,1.2
6789.15,1.52,1.23
6790.15,1.52,1.12
6792.15,1.53,1.06
6794.15,1.52,1.05
6796.15,1.47,0.88
6798.15,1.47,0.68
6800.15,1.37,0.53
6802.15,1.36,0.55
6804.15,1.36,0.62
6806.15,1.43,0.76
6808.15,1.48,0.9
6810.15,1.5,0.92
6812.15,1.53,0.98
6814.15,1.54,1.0
6816.15,1.47,1.02
6818.15,1.43,1.04
6820.15,1.28,0.86
6822.15,1.3,0.85
6824.15,1.35,1.02
6827.15,1.39,1.09
6829.15,1.48,1.19
6831.15,1.49,1.16
6832.15,1.52,1.12
6834.15,1.55,1.13
6836.15,1.56,1.11
6838.15,1.55,1.15
6840.15,1.43,1.08
6842.15,1.41,1.15
6844.15,1.39,1.27
6846.15,1.44,1.37
6848.15,1.5,1.35
6850.15,1.5,1.23
6852.15,1.52,1.24
6854.15,1.54,1.23
6856.15,1.52,1.33
6858.15,1.5,1.36
6860.15,1.4,1.29
6862.15,1.4,1.33
6864.15,1.45,1.38
6866.15,1.5,1.36
6869.15,1.58,1.43
6871.15,1.53,1.36
6873.15,1.48,1.32
6875.15,1.48,1.26
6876.15,1.48,1.2
6878.15,1.43,1.14
6880.15,1.35,1.17
6882.15,1.37,1.26
6884.15,1.36,1.36
6886.15,1.39,1.27
6888.15,1.46,1.15
6890.15,1.45,1.12
6892.15,1.46,1.17
6894.15,1.45,1.27
6896.15,1.42,1.42
6898.15,1.37,1.42
6900.15,1.28,1.35
6902.15,1.3,1.35
6904.15,1.33,1.39
6906.15,1.41,1.53
6908.15,1.48,1.59
6911.15,1.48,1.54
6913.15,1.51,1.56
6915.15,1.5,1.5
6917.15,1.47,1.47
6918.15,1.45,1.46
6920.15,1.37,1.41
6922.15,1.36,1.53
6924.15,1.4,1.6
6926.15,1.49,1.55
6928.15,1.56,1.55
6930.15,1.53,1.43
6932.15,1.5,1.44
6934.15,1.52,1.53
6936.15,1.55,1.66
6938.15,1.47,1.5
6940.15,1.38,1.53
6942.15,1.39,1.58
6944.15,1.44,1.63
6946.15,1.49,1.62
6948.15,1.54,1.59
6950.15,1.52,1.5
6952.15,1.54,1.57
6955.15,1.6,1.6
6957.15,1.53,1.61
6959.15,1.47,1.58
6961.15,1.34,1.51
6962.15,1.32,1.51
6964.15,1.35,1.53
6966.15,1.42,1.5
6968.15,1.51,1.51
6970.15,1.46,1.44
6972.15,1.43,1.4
6974.15,1.49,1.41
6976.15,1.49,1.45
6978.15,1.42,1.43
6980.15,1.32,1.28
6982.15,1.34,1.3
6984.15,1.34,1.44
6986.15,1.36,1.49
6988.15,1.44,1.46
6990.15,1.42,1.28
6992.15,1.44,1.31
6994.15,1.46,1.3
6997.15,1.42,1.3
6999.15,1.4,1.46
7001.15,1.3,1.45
7003.15,1.36,1.4
7004.15,1.41,1.48
7006.15,1.51,1.49
7008.15,1.54,1.56
7010.15,1.53,1.52
7012.15,1.53,1.37
7014.15,1.53,1.18
7016.15,1.51,1.03
7018.15,1.47,1.02
7020.15,1.4,0.98
7022.15,1.44,1.01
7024.15,1.44,1.12
7026.15,1.47,1.45
7028.15,1.53,1.65
7030.15,1.51,1.26
7032.15,1.53,1.15
7034.15,1.5,1.29
7036.15,1.46,1.33
7039.15,1.45,1.43
7041.15,1.33,1.34
7043.15,1.35,1.4
7045.15,1.38,1.42
7047.15,1.48,1.57
7048.15,1.56,1.73
7050.15,1.54,1.61
7052.15,1.55,1.58
7054.15,1.52,1.5
7056.15,1.49,1.5
7058.15,1.44,1.34
7060.15,1.33,1.2
7062.15,1.34,1.17
7064.15,1.37,1.19
7066.15,1.44,1.42
7068.15,1.46,1.46
7070.15,1.42,1.3
7072.15,1.37,1.17
7074.15,1.4,1.17
7076.15,1.38,1.05
7078.15,1.35,0.82
7080.15,1.29,0.77
7083.15,1.32,0.78
7085.15,1.35,0.98
7087.15,1.4,1.04
7089.15,1.42,0.87
7091.15,1.39,0.78
7092.15,1.41,0.66
7094.15,1.4,0.33
7096.15,1.37,0.04
7098.15,1.34,0.0
7100.15,1.26,0.0
7102.15,1.28,0.0
7104.15,1.35,0.14
7106.15,1.46,0.24
7108.15,1.56,0.31
7110.15,1.51,0.22
7112.15,1.51,0.14
7114.15,1.51,0.02
7116.15,1.52,0.17
7118.15,1.45,0.34
7120.15,1.35,0.48
7122.15,1.37,0.71
7125.15,1.37,0.86
7127.15,1.42,0.75
7129.15,1.48,0.83
7131.15,1.43,0.7
7133.15,1.42,0.64
7135.15,1.41,0.64
7136.15,1.38,0.53
7138.15,1.37,0.44
7140.15,1.3,0.44
7142.15,1.33,0.41
7144.15,1.36,0.68
7146.15,1.39,0.68
7148.15,1.5,0.55
7150.15,1.47,0.41
7152.15,1.46,0.5
7154.15,1.45,0.61
7156.15,1.41,0.76
7158.15,1.34,0.8
7160.15,1.28,0.66
7162.15,1.29,0.8
7164.15,1.32,0.95
7167.15,1.4,1.06
7169.15,1.57,1.25
7171.15,1.54,1.13
7173.15,1.58,1.28
7175.15,1.54,1.43
7177.15,1.49,1.43
7179.15,1.45,1.27
7180.15,1.38,1.14
7182.15,1.44,1.02
7184.15,1.45,0.89
7186.15,1.54,0.77
7188.15,1.65,0.79
7190.15,1.61,0.75
7192.15,1.63,0.91
7194.15,1.64,0.85
7196.15,1.63,0.98
7198.15,1.56,0.8
7200.15,1.46,0.66
7202.15,1.46,0.86
7204.15,1.51,0.99
7206.15,1.62,0.95
7208.15,1.68,0.77
7211.15,1.63,0.62
7213.15,1.59,0.59
7215.15,1.62,0.56
7217.15,1.57,0.37
7219.15,1.52,0.64
7221.15,1.39,0.66
7222.15,1.37,0.88
7224.15,1.39,0.98
7226.15,1.47,1.09
7228.15,1.57,1.03
7230.15,1.56,0.72
7232.15,1.58,0.65
7234.15,1.63,0.72
7236.15,1.61,0.68
7238.15,1.59,0.8
7240.15,1.49,0.88
7242.15,1.51,0.83
7244.15,1.53,0.96
7246.15,1.6,1.33
7248.15,1.65,1.56
7250.15,1.63,1.43
7253.15,1.65,1.31
7255.15,1.64,1.46
7257.15,1.61,1.67
7259.15,1.58,1.8
7261.15,1.48,1.86
7263.15,1.52,1.77
7265.15,1.52,1.65
7266.15,1.58,1.71
7268.15,1.63,1.55
7270.15,1.6,1.42
7272.15,1.62,1.42
7274.15,1.61,1.6
7276.15,1.56,1.73
7278.15,1.52,1.77
7280.15,1.41,1.62
7282.15,1.44,1.35
7284.15,1.51,1.15
7286.15,1.57,1.07
7288.15,1.65,1.0
7290.15,1.61,0.61
7292.15,1.61,0.31
7295.15,1.62,0.42
7297.15,1.59,0.4
7299.15,1.53,0.41
7301.15,1.43,0.52
7303.15,1.45,0.65
7305.15,1.48,0.69
7307.15,1.53,0.63
7309.15,1.6,0.87
7310.15,1.61,0.84
7312.15,1.64,0.71
7314.15,1.56,0.67
7316.15,1.54,0.76
7318.15,1.53,0.91
7320.15,1.39,0.92
7322.15,1.41,0.94
7324.15,1.42,0.9
7326.15,1.45,0.89
7328.15,1.47,0.91
7330.15,1.48,0.87
7332.15,1.52,0.89
7334.15,1.47,0.72
7336.15,1.44,0.56
7339.15,1.41,0.45
7341.15,1.29,0.45
7343.15,1.31,0.48
7345.15,1.34,0.53
7347.15,1.4,0.41
7349.15,1.46,0.5
7351.15,1.43,0.57
7353.15,1.4,0.82
7354.15,1.39,0.75
7356.15,1.41,0.95
7358.15,1.39,1.16
7360.15,1.3,1.23
7362.15,1.36,1.43
7364.15,1.42,1.65
7366.15,1.46,1.79
7368.15,1.49,1.96
7370.15,1.5,2.81
7372.15,1.51,3.3
7374.15,1.42,3.3
7376.15,1.4,3.3
7378.15,1.37,3.3
7381.15,1.28,3.3
7383.15,1.3,3.3
7385.15,1.37,3.3
7387.15,1.43,3.3
7389.15,1.53,3.3
7391.15,1.52,3.3
7393.15,1.51,3.3
7395.15,1.53,3.3
7397.15,1.47,3.3
7398.15,1.44,3.3
7400.15,1.33,3.3
7402.15,1.37,3.3
7404.15,1.42,3.3
7406.15,1.46,3.3
7408.15,1.51,3.3
7410.15,1.47,3.3
7412.15,1.48,3.3
7414.15,1.48,3.3
7416.15,1.41,3.3
7418.15,1.38,3.3
7420.15,1.26,3.3
7423.15,1.29,3.3
7425.15,1.35,3.3
7427.15,1.39,3.3
7429.15,1.49,3.15
7431.15,1.46,2.52
7433.15,1.45,1.99
7435.15,1.44,1.67
7437.15,1.41,1.34
7439.15,1.36,0.91
7440.15,1.3,0.6
7442.15,1.31,0.46
7444.15,1.36,0.49
7446.15,1.38,0.55
7448.15,1.47,0.61
7450.15,1.47,0.55
7452.15,1.5,0.59
7454.15,1.47,0.68
7456.15,1.43,0.94
7458.15,1.37,0.89
7460.15,1.3,0.81
7462.15,1.3,0.8
7464.15,1.37,0.72
7467.15,1.47,0.66
7469.15,1.49,0.65
7471.15,1.45,0.72
7473.15,1.45,1.0
7475.15,1.43,1.19
7477.15,1.36,1.33
7479.15,1.29,1.36
7481.15,1.25,1.44
7483.15,1.28,1.48
7484.15,1.35,1.64
7486.15,1.44,1.75
7488.15,1.52,1.8
7490.15,1.48,1.82
7492.15,1.46,2.01
7494.15,1.44,2.08
7496.15,1.41,2.06
7498.15,1.32,2.11
7500.15,1.18,1.89
7502.15,1.18,1.86
7504.15,1.25,1.95
7506.15,1.35,2.03
7509.15,1.4,2.19
7511.15,1.36,2.32
7513.15,1.42,2.35
7515.15,1.38,2.2
7517.15,1.31,2.36
7519.15,1.26,2.43
7521.15,1.18,2.34
7523.15,1.21,2.41
7525.15,1.23,2.56
7527.15,1.33,2.68
7528.15,1.37,2.71
7530.15,1.36,2.61
7532.15,1.37,2.62
7534.15,1.32,2.69
7536.15,1.28,2.81
7538.15,1.25,3.02
7540.15,1.19,2.96
7542.15,1.23,3.06
7544.15,1.27,3.1
7546.15,1.34,3.18
7548.15,1.38,3.3
7551.15,1.34,3.3
7553.15,1.35,3.3
7555.15,1.34,3.3
7557.15,1.33,3.3
7559.15,1.27,3.29
7561.15,1.19,3.24
7563.15,1.21,3.3
7565.15,1.26,3.3
7567.15,1.37,3.3
7569.15,1.42,3.3
7571.15,1.44,3.24
7572.15,1.46,3.3
7574.15,1.43,3.3
7576.15,1.4,3.3
7578.15,1.37,3.3
7580.15,1.34,3.26
7582.15,1.42,3.3
7584.15,1.45,3.24
7586.15,1.48,3.22
7588.15,1.56,3.25
7590.15,1.55,3.1
7592.15,1.56,3.04
7595.15,1.57,2.98
7597.15,1.49,2.66
7599.15,1.43,2.44
7601.15,1.36,2.3
7603.15,1.41,2.42
7605.15,1.45,2.46
7607.15,1.51,2.44
7609.15,1.57,2.36
7611.15,1.55,2.25
7613.15,1.58,2.23
7615.15,1.56,2.18
7616.15,1.53,2.09
7618.15,1.47,2.0
7620.15,1.42,1.87
7622.15,1.47,1.79
7624.15,1.5,1.65
7626.15,1.52,1.48
7628.15,1.61,1.28
7630.15,1.63,1.25
7632.15,1.62,1.29
7634.15,1.6,1.34
7637.15,1.6,1.3
7639.15,1.52,1.12
7641.15,1.44,0.98
7643.15,1.43,0.91
7645.15,1.48,0.99
7647.15,1.52,0.98
7649.15,1.57,1.08
7651.15,1.55,0.91
7653.15,1.58,0.75
7655.15,1.55,0.6
7657.15,1.54,0.69
7659.15,1.5,0.65
7660.15,1.4,0.7
7662.15,1.4,0.72
7664.15,1.46,0.8
7666.15,1.45,0.89
7668.15,1.5,1.02
7670.15,1.49,0.94
7672.15,1.48,0.97
7674.15,1.47,1.0
7676.15,1.45,1.06
7679.15,1.37,1.06
7681.15,1.27,1.04
7683.15,1.27,1.02
7685.15,1.35,1.11
7687.15,1.46,1.11
7689.15,1.52,0.95
7691.15,1.5,0.81
7693.15,1.51,0.98
7695.15,1.51,1.09
7697.15,1.45,1.05
7699.15,1.34,0.94
7701.15,1.31,0.98
7703.15,1.34,1.15
7704.15,1.37,1.29
7706.15,1.46,1.31
7708.15,1.48,1.3
7710.15,1.5,1.28
7712.15,1.56,1.35
7714.15,1.54,1.33
7716.15,1.45,1.25
7718.15,1.36,1.19
7720.15,1.25,1.19
7723.15,1.28,1.24
7725.15,1.37,1.2
7727.15,1.46,1.22
7729.15,1.46,1.16
7731.15,1.47,1.15
7733.15,1.45,1.28
7735.15,1.45,1.35
7737.15,1.37,1.3
7739.15,1.35,1.31
7741.15,1.32,1.35
7743.15,1.34,1.43
7745.15,1.41,1.49
7746.15,1.48,1.47
7748.15,1.51,1.48
7750.15,1.54,1.37
7752.15,1.56,1.25
7754.15,1.56,1.09
7756.15,1.52,1.09
7758.15,1.47,1.15
7760.15,1.4,1.02
7762.15,1.4,0.93
7765.15,1.51,0.98
7767.15,1.55,1.03
7769.15,1.58,1.19
7771.15,1.56,1.24
7773.15,1.57,1.3
7775.15,1.52,1.23
7777.15,1.46,1.23
7779.15,1.44,1.36
7781.15,1.37,1.48
7783.15,1.4,1.55
7785.15,1.45,1.55
7787.15,1.5,1.42
7789.15,1.55,1.24
7790.15,1.57,1.29
7792.15,1.59,1.4
7794.15,1.56,1.4
7796.15,1.53,1.34
7798.15,1.46,1.33
7800.15,1.41,1.29
7802.15,1.45,1.35
7804.15,1.47,1.35
7807.15,1.52,1.39
7809.15,1.54,1.39
7811.15,1.56,1.33
7813.15,1.58,1.35
7815.15,1.55,1.3
7817.15,1.53,1.32
7819.15,1.43,1.34
7821.15,1.35,1.3
7823.15,1.36,1.06
7825.15,1.37,1.05
7827.15,1.43,1.22
7829.15,1.49,1.27
7831.15,1.47,1.3
7832.15,1.48,1.31
7834.15,1.45,1.25
7836.15,1.43,1.37
7838.15,1.38,1.38
7840.15,1.33,1.35
7842.15,1.34,1.3
7844.15,1.42,1.17
7846.15,1.46,1.08
7848.15,1.52,1.05
7851.15,1.55,1.07
7853.15,1.51,1.18
7855.15,1.51,1.34
7857.15,1.47,1.5
7859.15,1.4,1.49
7861.15,1.34,1.5
7863.15,1.34,1.58
7865.15,1.4,1.6
7867.15,1.48,1.57
7869.15,1.5,1.41
7871.15,1.47,1.34
7873.15,1.48,1.36
7875.15,1.46,1.53
7876.15,1.44,1.57
7878.15,1.37,1.44
7880.15,1.33,1.46
7882.15,1.4,1.49
7884.15,1.45,1.58
7886.15,1.52,1.52
7888.15,1.56,1.5
7890.15,1.56,1.46
7893.15,1.55,1.56
7895.15,1.54,1.63
7897.15,1.46,1.56
7899.15,1.41,1.44
7901.15,1.37,1.34
7903.15,1.41,1.38
7905.15,1.43,1.38
7907.15,1.5,1.42
7909.15,1.52,1.4
7911.15,1.51,1.45
7913.15,1.51,1.54
7915.15,1.48,1.5
7917.15,1.44,1.32
7919.15,1.39,1.11
7920.15,1.35,1.12
7922.15,1.35,1.31
7924.15,1.41,1.42
7926.15,1.48,1.42
7928.15,1.53,1.42
7930.15,1.54,1.58
7932.15,1.47,1.54
7935.15,1.49,1.5
7937.15,1.45,1.51
7939.15,1.36,1.41
7941.15,1.3,1.36
7943.15,1.34,1.34
7945.15,1.39,1.29
7947.15,1.48,1.3
7949.15,1.51,1.19
7951.15,1.56,1.26
7953.15,1.51,1.33
7955.15,1.47,1.37
7957.15,1.46,1.32
7959.15,1.4,1.12
7961.15,1.34,1.04
7963.15,1.35,1.23
7964.15,1.4,1.34
7966.15,1.47,1.24
7968.15,1.48,1.07
7970.15,1.5,0.97
7972.15,1.5,0.94
7974.15,1.5,1.04
7976.15,1.44,1.15
7979.15,1.37,1.15
7981.15,1.34,1.17
7983.15,1.37,1.15
7985.15,1.43,1.2
7987.15,1.53,1.33
7989.15,1.56,1.23
7991.15,1.53,1.19
7993.15,1.59,1.2
7995.15,1.55,1.15
7997.15,1.47,1.01
7999.15,1.39,1.01
8001.15,1.33,1.06
8003.15,1.33,1.06
8005.15,1.41,0.98
8007.15,1.49,0.94
8008.15,1.53,1.06
8010.15,1.52,1.18
8012.15,1.52,1.22
8014.15,1.48,1.16
8016.15,1.44,1.15
8018.15,1.38,1.2
8021.15,1.38,1.4
8023.15,1.37,1.21
8025.15,1.42,1.21
8027.15,1.46,1.46
8029.15,1.53,1.45
8031.15,1.52,1.38
8033.15,1.61,1.46
8035.15,1.53,1.34
8037.15,1.52,1.39
8039.15,1.43,1.35
8041.15,1.41,1.24
8043.15,1.41,1.1
8045.15,1.54,0.98
8047.15,1.61,0.91
8049.15,1.57,1.01
8050.15,1.56,1.11
8052.15,1.56,1.24
8054.15,1.54,1.25
8056.15,1.49,1.21
8058.15,1.4,1.02
8060.15,1.41,0.93
8063.15,1.42,0.98
8065.15,1.49,1.09
8067.15,1.51,1.21
8069.15,1.56,1.12
8071.15,1.58,0.94
8073.15,1.51,0.88
8075.15,1.49,0.88
8077.15,1.43,0.6
8079.15,1.34,0.14
8081.15,1.3,0.26
8083.15,1.33,0.34
8085.15,1.41,0.36
8087.15,1.43,0.32
8089.15,1.45,0.2
8091.15,1.46,0.25
8093.15,1.47,0.35
8094.15,1.43,0.43
8096.15,1.38,0.22
8098.15,1.32,0.0
8100.15,1.28,0.0
8102.15,1.31,0.34
8104.15,1.38,0.62
8107.15,1.43,0.57
8109.15,1.46,0.39
8111.15,1.45,0.57
8113.15,1.42,0.92
8115.15,1.37,0.99
8117.15,1.35,0.99
8119.15,1.25,1.07
8121.15,1.24,1.41
8123.15,1.25,1.54
8125.15,1.35,1.5
8127.15,1.41,1.51
8129.15,1.43,1.39
8131.15,1.47,1.44
8133.15,1.45,1.5
8135.15,1.4,1.4
8136.15,1.36,1.64
8138.15,1.32,1.56
8140.15,1.34,1.49
8142.15,1.34,1.5
8144.15,1.37,1.41
8146.15,1.45,1.53
8149.15,1.49,1.46
8151.15,1.49,1.53
8153.15,1.5,1.57
8155.15,1.49,1.55
8157.15,1.48,1.14
8159.15,1.37,0.97
8161.15,1.31,1.48
8163.15,1.36,1.79
8165.15,1.43,1.81
8167.15,1.51,1.78
8169.15,1.53,1.66
8171.15,1.52,1.46
8173.15,1.5,1.33
8175.15,1.49,1.38
8177.15,1.43,1.31
8179.15,1.34,1.27
8180.15,1.31,1.25
8182.15,1.33,1.24
8184.15,1.4,1.17
8186.15,1.49,1.28
8188.15,1.51,1.2
8191.15,1.49,1.09
8193.15,1.52,1.32
8195.15,1.54,1.33
8197.15,1.49,1.25
8199.15,1.36,1.2
8201.15,1.38,1.5
8203.15,1.38,1.66
8205.15,1.5,1.55
8207.15,1.58,1.29
8209.15,1.6,1.14
8211.15,1.6,1.24
8213.15,1.64,1.38
8215.15,1.61,1.48
8217.15,1.57,1.67
8219.15,1.52,1.61
8221.15,1.5,1.6
8223.15,1.49,1.62
8224.15,1.53,1.58
8226.15,1.59,1.49
8228.15,1.59,1.34
8230.15,1.65,1.4
8232.15,1.69,1.47
8235.15,1.63,1.42
8237.15,1.58,1.34
8239.15,1.47,1.3
8241.15,1.5,1.29
8243.15,1.48,1.22
8245.15,1.54,1.25
8247.15,1.57,1.41
8249.15,1.6,1.48
8251.15,1.61,1.55
8253.15,1.62,1.48
8255.15,1.58,1.27
8257.15,1.53,1.14
8259.15,1.45,0.95
8261.15,1.46,0.94
8263.15,1.47,1.01
8265.15,1.58,1.22
8266.15,1.64,1.3
8268.15,1.66,1.26
8270.15,1.7,1.54
8272.15,1.65,1.57
8274.15,1.62,1.36
8277.15,1.58,1.27
8279.15,1.48,1.11
8281.15,1.5,1.02
8283.15,1.54,0.92
8285.15,1.58,0.89
8287.15,1.64,0.83
8289.15,1.63,0.62
8291.15,1.62,0.58
8293.15,1.61,0.56
8295.15,1.53,0.34
8297.15,1.45,0.26
8299.15,1.34,0.4
8301.15,1.33,0.15
8303.15,1.41,0.0
8305.15,1.5,0.0
8307.15,1.54,0.0
8309.15,1.55,0.0
8310.15,1.61,0.0
8312.15,1.57,0.0
8314.15,1.55,0.0
8316.15,1.56,0.0
8319.15,1.51,0.0
8321.15,1.52,0.0
8323.15,1.56,0.0
8325.15,1.61,0.0
8327.15,1.66,0.0
8329.15,1.68,0.0
8331.15,1.7,0.0
8333.15,1.67,0.0
8335.15,1.65,0.0
8337.15,1.63,0.0
8339.15,1.53,0.0
8341.15,1.51,0.0
8343.15,1.51,0.0
8345.15,1.54,0.0
8347.15,1.6,0.0
8349.15,1.6,0.0
8351.15,1.63,0.0
8352.15,1.62,0.0
8354.15,1.61,0.0
8356.15,1.55,0.0
8358.15,1.42,0.0
8360.15,1.42,0.0
8363.15,1.45,0.0
8365.15,1.55,0.0
8367.15,1.66,0.0
8369.15,1.65,0.07
8371.15,1.66,0.41
8373.15,1.6,0.55
8375.15,1.56,0.74
8377.15,1.52,0.9
8379.15,1.41,0.97
8381.15,1.42,1.19
8383.15,1.42,1.97
8385.15,1.52,2.4
8387.15,1.58,2.7
8389.15,1.57,2.79
8391.15,1.49,3.28
8393.15,1.53,3.3
8395.15,1.49,3.3
8396.15,1.47,3.3
8398.15,1.35,3.3
8400.15,1.32,3.3
8402.15,1.32,3.3
8405.15,1.42,3.3
8407.15,1.48,3.3
8409.15,1.48,3.3
8411.15,1.52,3.3
8413.15,1.55,3.2
8415.15,1.52,3.16
8417.15,1.45,3.24
8419.15,1.35,3.13
8421.15,1.36,3.07
8423.15,1.35,3.14
8425.15,1.41,3.06
8427.15,1.47,2.93
8429.15,1.47,2.7
8431.15,1.47,2.5
8433.15,1.49,2.32
8435.15,1.46,2.24
8437.15,1.42,2.27
8439.15,1.31,2.31
8440.15,1.33,2.28
8442.15,1.35,2.14
8444.15,1.43,2.13
8447.15,1.48,2.14
8449.15,1.44,2.12
8451.15,1.44,2.21
8453.15,1.46,2.22
8455.15,1.44,2.32
8457.15,1.39,2.38
8459.15,1.28,2.31
8461.15,1.27,2.46
8463.15,1.26,2.71
8465.15,1.34,2.97
8467.15,1.38,2.92
8469.15,1.33,2.75
8471.15,1.33,2.73
8473.15,1.32,2.7
8475.15,1.29,2.67
8477.15,1.28,2.67
8479.15,1.2,2.56
8481.15,1.21,2.63
8482.15,1.23,2.75
8484.15,1.33,2.74
8486.15,1.39,2.72
8488.15,1.39,2.75
8491.15,1.4,2.9
8493.15,1.36,2.92
8495.15,1.29,2.88
8497.15,1.28,2.91
8499.15,1.2,2.78
8501.15,1.25,2.83
8503.15,1.28,2.82
8505.15,1.36,2.72
8507.15,1.43,2.63
8509.15,1.44,2.41
8511.15,1.43,2.42
8513.15,1.43,2.45
8515.15,1.44,2.44
8517.15,1.39,2.55
8519.15,1.25,2.4
8521.15,1.24,2.43
8523.15,1.25,2.73
8525.15,1.32,2.8
8526.15,1.36,2.88
8528.15,1.35,2.82
8530.15,1.4,2.99
8533.15,1.35,2.93
8535.15,1.3,2.81
8537.15,1.26,2.97
8539.15,1.13,3.01
8541.15,1.13,2.93
8543.15,1.15,2.77
8545.15,1.19,2.63
8547.15,1.29,2.65
8549.15,1.29,2.56
8551.15,1.34,2.79
8553.15,1.28,2.87
8555.15,1.21,2.9
8557.15,1.16,2.9
8559.15,1.08,2.82
8561.15,1.15,2.93
8563.15,1.21,2.98
8565.15,1.25,2.93
8567.15,1.34,3.05
8568.15,1.32,2.9
8570.15,1.31,2.86
8572.15,1.32,2.78
8575.15,1.27,2.65
8577.15,1.24,2.55
8579.15,1.16,2.31
8581.15,1.2,2.15
8583.15,1.22,1.99
8585.15,1.28,1.95
8587.15,1.34,1.9
8589.15,1.34,1.72
8591.15,1.36,1.73
8593.15,1.36,1.57
8595.15,1.35,1.52
8597.15,1.31,1.6
8599.15,1.2,1.66
8601.15,1.2,1.72
8603.15,1.22,1.72
8605.15,1.31,1.66
8607.15,1.41,1.65
8609.15,1.41,1.57
8611.15,1.43,1.66
8612.15,1.45,1.6
8614.15,1.47,1.43
8616.15,1.45,1.39
8619.15,1.36,1.37
8621.15,1.43,1.42
8623.15,1.42,1.36
8625.15,1.47,1.26
8627.15,1.52,1.23
8629.15,1.55,1.19
8631.15,1.6,1.15
8633.15,1.6,1.05
8635.15,1.57,1.02
8637.15,1.52,0.97
8639.15,1.42,0.88
8641.15,1.45,0.76
8643.15,1.47,0.64
8645.15,1.48,0.55
8647.15,1.56,0.59
8649.15,1.56,0.46
8651.15,1.61,0.42
8653.15,1.59,0.38
8655.15,1.57,0.32
8656.15,1.51,0.25
8658.15,1.4,0.34
8661.15,1.38,0.54
8663.15,1.37,0.55
8665.15,1.49,0.71
8667.15,1.53,0.79
8669.15,1.48,0.71
8671.15,1.47,0.7
8673.15,1.47,0.8
8675.15,1.46,0.92
8677.15,1.39,0.94
8679.15,1.29,0.96
8681.15,1.3,1.21
8683.15,1.32,1.41
8685.15,1.36,1.42
8687.15,1.45,1.48
8689.15,1.42,1.29
8691.15,1.45,1.35
8693.15,1.45,1.34
8695.15,1.45,1.32
8697.15,1.42,1.29
8698.15,1.35,1.22
8700.15,1.36,1.22
8703.15,1.36,1.26
8705.15,1.48,1.47
8707.15,1.55,1.49
8709.15,1.54,1.35
8711.15,1.54,1.38
8713.15,1.58,1.44
8715.15,1.51,1.37
8717.15,1.45,1.31
8719.15,1.37,1.24
8721.15,1.4,1.3
8723.15,1.42,1.26
8725.15,1.49,1.22
8727.15,1.55,1.43
8729.15,1.55,1.28
8731.15,1.58,1.21
8733.15,1.63,1.33
8735.15,1.56,1.44
8737.15,1.51,1.42
8739.15,1.42,1.32
8741.15,1.44,1.31
8742.15,1.44,1.29
8744.15,1.57,1.46
8747.15,1.63,1.49
8749.15,1.6,1.28
8751.15,1.64,1.28
8753.15,1.6,1.26
8755.15,1.55,1.34
8757.15,1.52,1.27
8759.15,1.42,1.19
8761.15,1.43,1.25
8763.15,1.48,1.37
8765.15,1.53,1.4
8767.15,1.57,1.43
8769.15,1.55,1.27
8771.15,1.54,1.24
8773.15,1.48,1.21
8775.15,1.4,1.24
8777.15,1.39,1.31
8779.15,1.33,1.3
8781.15,1.35,1.42
8783.15,1.39,1.51
8785.15,1.47,1.44
8786.15,1.53,1.44
8789.15,1.49,1.37
8791.15,1.54,1.37
8793.15,1.5,1.52
8795.15,1.45,1.49
8797.15,1.46,1.3
8799.15,1.39,1.09
8801.15,1.38,1.17
8803.15,1.41,1.22
8805.15,1.5,1.15
8807.15,1.56,1.04
8809.15,1.55,1.01
8811.15,1.58,1.08
8813.15,1.58,1.12
8815.15,1.52,1.11
8817.15,1.51,1.16
8819.15,1.38,1.16
8821.15,1.41,1.18
8823.15,1.44,1.18
8825.15,1.47,1.22
8827.15,1.53,1.26
8828.15,1.52,1.29
8831.15,1.52,1.31
8833.15,1.48,1.28
8835.15,1.45,1.27
8837.15,1.38,1.23
8839.15,1.27,1.14
8841.15,1.27,1.14
8843.15,1.36,1.22
8845.15,1.43,1.31
8847.15,1.56,1.43
8849.15,1.51,1.26
8851.15,1.54,1.17
8853.15,1.55,1.21
8855.15,1.51,1.28
8857.15,1.44,1.25
8859.15,1.35,1.15
8861.15,1.33,1.24
8863.15,1.38,1.33
8865.15,1.42,1.31
8867.15,1.46,1.29
8869.15,1.44,1.18
8871.15,1.46,1.26
8872.15,1.47,1.33
8875.15,1.46,1.27
8877.15,1.43,1.14
8879.15,1.36,1.08
8881.15,1.35,1.1
8883.15,1.4,1.11
8885.15,1.5,1.2
8887.15,1.58,1.24
8889.15,1.53,1.19
8891.15,1.55,1.2
8893.15,1.56,1.2
8895.15,1.49,1.23
8897.15,1.45,1.26
8899.15,1.36,1.15
8901.15,1.4,1.15
8903.15,1.43,1.23
8905.15,1.51,1.33
8907.15,1.58,1.4
8909.15,1.54,1.25
8911.15,1.57,1.25
8913.15,1.55,1.17
8915.15,1.53,1.2
8917.15,1.47,1.24
8919.15,1.36,1.15
8921.15,1.38,1.26
8923.15,1.42,1.54
8925.15,1.46,1.53
8927.15,1.5,1.54
8929.15,1.47,1.53
8931.15,1.49,1.55
8933.15,1.45,1.47
8935.15,1.44,1.59
8937.15,1.4,1.63
8939.15,1.29,1.52
8941.15,1.32,1.54
8943.15,1.33,1.62
8945.15,1.4,1.72
8947.15,1.5,1.81
8949.15,1.45,1.75
8951.15,1.41,1.8
8953.15,1.39,1.81
8955.15,1.38,1.81
8957.15,1.33,1.71
8959.15,1.24,1.61
8961.15,1.28,1.71
8963.15,1.31,1.7
8965.15,1.36,1.61
8967.15,1.43,1.58
8969.15,1.42,1.52
8971.15,1.44,1.54
8973.15,1.43,1.62
8975.15,1.43,1.56
8977.15,1.38,1.37
8979.15,1.29,1.28
8981.15,1.32,1.42
8983.15,1.37,1.49
8985.15,1.45,1.45
8987.15,1.54,1.49
8989.15,1.55,1.46
8991.15,1.57,1.53
8993.15,1.5,1.39
8995.15,1.51,1.41
8997.15,1.46,1.5
8999.15,1.39,1.44
9002.15,1.42,1.55
9003.15,1.44,1.47
9005.15,1.49,1.45
9007.15,1.57,1.51
9009.15,1.57,1.45
9011.15,1.61,1.52
9013.15,1.62,1.78
9015.15,1.56,1.88
9017.15,1.53,1.91
9019.15,1.44,1.89
9021.15,1.45,1.9
9023.15,1.54,2.09
9025.15,1.53,2.23
9027.15,1.56,2.44
9029.15,1.52,2.29
9031.15,1.55,2.28
9033.15,1.51,2.33
9035.15,1.5,2.34
9037.15,1.41,2.17
9039.15,1.34,2.03
9041.15,1.34,2.09
9043.15,1.38,2.31
9046.15,1.42,2.17
9047.15,1.5,2.25
9049.15,1.46,2.2
9051.15,1.5,2.21
9053.15,1.48,1.9
9055.15,1.45,1.76
9057.15,1.44,2.16
9059.15,1.33,2.17
9061.15,1.32,2.09
9063.15,1.38,2.11
9065.15,1.44,2.16
9067.15,1.5,2.23
9069.15,1.49,1.97
9071.15,1.51,1.58
9073.15,1.47,1.3
9075.15,1.45,1.17
9077.15,1.42,1.3
9079.15,1.3,1.4
9081.15,1.34,1.14
9083.15,1.39,0.96
9085.15,1.42,1.08
9088.15,1.48,1.05
9090.15,1.43,0.71
9091.15,1.45,0.41
9093.15,1.46,0.97
9095.15,1.45,1.13
9097.15,1.4,1.04
9099.15,1.3,0.95
9101.15,1.35,0.93
9103.15,1.39,0.87
9105.15,1.48,0.88
9107.15,1.5,0.99
9109.15,1.47,1.06
9111.15,1.49,1.19
9113.15,1.48,1.17
9115.15,1.51,1.05
9117.15,1.47,0.75
9119.15,1.34,0.58
9121.15,1.34,0.93
9123.15,1.35,1.01
9125.15,1.42,0.97
9127.15,1.49,1.18
9130.15,1.5,1.25
9132.15,1.5,0.74
9134.15,1.5,0.61
9135.15,1.49,0.58
9137.15,1.46,0.48
9139.15,1.38,0.36
9141.15,1.4,0.57
9143.15,1.4,0.85
9145.15,1.45,1.01
9147.15,1.52,0.96
9149.15,1.49,0.85
9151.15,1.52,1.04
9153.15,1.49,1.06
9155.15,1.49,0.93
9157.15,1.43,0.77
9159.15,1.41,0.82
9161.15,1.5,1.25
9163.15,1.51,1.31
9165.15,1.58,1.15
9167.15,1.61,1.12
9169.15,1.56,1.0
9171.15,1.57,1.2
9174.15,1.51,1.35
9176.15,1.5,1.36
9177.15,1.46,1.18
9179.15,1.37,1.05
9181.15,1.37,1.08
9183.15,1.4,1.29
9185.15,1.45,1.24
9187.15,1.55,1.14
9189.15,1.53,1.12
9191.15,1.51,1.19
9193.15,1.47,1.24
9195.15,1.45,1.29
9197.15,1.37,1.27
9199.15,1.29,1.21
9201.15,1.27,1.21
9203.15,1.36,1.42
9205.15,1.42,1.52
9207.15,1.49,1.55
9209.15,1.46,1.5
9211.15,1.51,1.63
9213.15,1.47,1.71
9216.15,1.46,1.63
9218.15,1.41,1.48
9220.15,1.33,1.3
9221.15,1.34,1.39
9223.15,1.41,1.58
9225.15,1.5,1.76
9227.15,1.5,1.83
9229.15,1.5,1.69
9231.15,1.54,1.55
9233.15,1.55,1.41
9235.15,1.52,1.6
9237.15,1.45,1.61
9239.15,1.43,1.57
9241.15,1.49,1.54
9243.15,1.59,1.57
9245.15,1.63,1.59
9247.15,1.64,1.7
9249.15,1.6,1.6
9251.15,1.65,1.59
9253.15,1.62,1.53
9255.15,1.63,1.49
9258.15,1.53,1.46
9260.15,1.45,1.52
9262.15,1.45,1.51
9264.15,1.46,1.45
9265.15,1.53,1.4
9267.15,1.53,1.31
9269.15,1.5,1.33
9271.15,1.49,1.43
9273.15,1.53,1.48
9275.15,1.52,1.61
9277.15,1.46,1.66
9279.15,1.42,1.48
9281.15,1.44,1.43
9283.15,1.54,1.66
9285.15,1.57,1.51
9287.15,1.62,1.35
9289.15,1.6,1.11
9291.15,1.62,0.8
9293.15,1.58,0.66
9295.15,1.52,0.51
9297.15,1.45,0.34
9299.15,1.41,0.29
9302.15,1.48,0.23
9304.15,1.54,0.21
9306.15,1.59,0.21
9308.15,1.63,0.22
9309.15,1.64,0.2
9311.15,1.62,0.22
9313.15,1.63,0.0
9315.15,1.6,0.0
9317.15,1.52,0.0
9319.15,1.5,0.0
9321.15,1.53,0.0
9323.15,1.54,0.0
9325.15,1.58,0.05
9327.15,1.6,0.07
9329.15,1.55,0.04
9331.15,1.6,0.18
9333.15,1.56,0.26
9335.15,1.48,0.33
9337.15,1.4,0.39
9339.15,1.32,0.58
9341.15,1.33,0.61
9344.15,1.34,0.67
9346.15,1.42,0.82
9348.15,1.44,0.86
9350.15,1.4,0.86
9351.15,1.38,0.95
9353.15,1.39,0.98
9355.15,1.39,1.08
9357.15,1.34,1.07
9359.15,1.31,1.06
9361.15,1.39,1.2
9363.15,1.44,1.31
9365.15,1.53,1.38
9367.15,1.58,1.43
9369.15,1.57,1.44
9371.15,1.58,1.55
9373.15,1.59,1.62
9375.15,1.54,1.75
9377.15,1.46,1.73
9379.15,1.41,1.62
9381.15,1.43,1.55
9383.15,1.53,1.52
9386.15,1.53,1.48
9388.15,1.54,1.54
9390.15,1.52,1.57
9392.15,1.51,1.62
9394.15,1.58,1.79
9395.15,1.53,1.83
9397.15,1.43,1.74
9399.15,1.39,1.76
9401.15,1.38,1.84
9403.15,1.45,1.99
9405.15,1.58,2.11
9407.15,1.61,2.13
9409.15,1.55,1.98
9411.15,1.56,2.03
9413.15,1.57,2.06
9415.15,1.56,2.13
9417.15,1.44,2.15
9419.15,1.38,2.2
9421.15,1.41,2.31
9423.15,1.51,2.3
9425.15,1.59,2.26
9427.15,1.62,2.08
9430.15,1.59,2.06
9432.15,1.58,2.22
9434.15,1.68,2.34
9436.15,1.6,2.21
9438.15,1.5,2.07
9439.15,1.43,2.16
9441.15,1.42,2.11
9443.15,1.46,2.15
9445.15,1.54,2.2
9447.15,1.53,2.27
9449.15,1.51,2.35
9451.15,1.5,2.49
9453.15,1.48,2.72
9455.15,1.41,2.86
9457.15,1.31,2.79
9459.15,1.26,2.72
9461.15,1.3,2.75
9463.15,1.35,2.71
9465.15,1.42,2.7
9467.15,1.42,2.6
9469.15,1.39,2.43
9472.15,1.33,2.33
9474.15,1.37,2.47
9476.15,1.32,2.57
9478.15,1.32,2.65
9480.15,1.29,2.73
9482.15,1.33,2.75
9484.15,1.4,2.74
9485.15,1.45,2.76
9487.15,1.46,2.58
9489.15,1.44,2.33
9491.15,1.46,2.18
9493.15,1.42,2.15
9495.15,1.35,2.08
9497.15,1.25,1.95
9499.15,1.18,1.93
9501.15,1.19,1.98
9503.15,1.24,2.12
9505.15,1.26,2.18
9507.15,1.3,2.05
9509.15,1.3,2.07
9511.15,1.3,2.17
9514.15,1.25,2.24
9516.15,1.2,2.12
9518.15,1.13,2.16
9520.15,1.11,2.19
9522.15,1.07,2.32
9524.15,1.13,2.43
9526.15,1.2,2.45
9527.15,1.26,2.45
9529.15,1.21,2.41
9531.15,1.24,2.44
9533.15,1.17,2.48
9535.15,1.15,2.48
9537.15,1.1,2.38
9539.15,1.06,2.46
9541.15,1.07,2.53
9543.15,1.13,2.54
9545.15,1.22,2.48
9547.15,1.29,2.42
9549.15,1.32,2.47
9551.15,1.35,2.48
9553.15,1.33,2.37
9555.15,1.29,2.25
9558.15,1.24,2.07
9560.15,1.25,2.13
9562.15,1.3,2.21
9564.15,1.39,2.28
9566.15,1.43,2.15
9568.15,1.45,2.14
9570.15,1.47,2.11
9572.15,1.45,2.07
9573.15,1.41,1.94
9575.15,1.41,2.0
9577.15,1.33,1.97
9579.15,1.33,1.94
9581.15,1.35,1.83
9583.15,1.46,1.81
9585.15,1.51,1.81
9587.15,1.56,1.8
9589.15,1.61,1.81
9591.15,1.62,1.75
9593.15,1.57,1.7
9595.15,1.57,1.75
9597.15,1.5,1.72
9600.15,1.45,1.78
9602.15,1.4,1.75
9604.15,1.49,1.64
9606.15,1.59,1.54
9608.15,1.62,1.5
9610.15,1.65,1.41
9612.15,1.63,1.46
9614.15,1.6,1.47
9616.15,1.58,1.48
9617.15,1.48,1.39
9619.15,1.48,1.39
9621.15,1.54,1.43
9623.15,1.59,1.41
9625.15,1.65,1.39
9627.15,1.68,1.17
9629.15,1.66,1.13
9631.15,1.6,1.12
9633.15,1.56,1.12
9635.15,1.54,1.03
9637.15,1.5,0.97
9639.15,1.45,1.04
9642.15,1.47,1.08
9644.15,1.52,1.07
9646.15,1.61,1.08
9648.15,1.65,1.06
9650.15,1.64,1.09
9652.15,1.62,1.09
9654.15,1.59,1.06
9656.15,1.52,1.01
9658.15,1.4,0.95
9660.15,1.37,0.95
9661.15,1.42,1.15
9663.15,1.45,1.27
9665.15,1.45,1.39
9667.15,1.46,1.35
9669.15,1.47,1.28
9671.15,1.44,1.27
9673.15,1.45,1.44
9675.15,1.4,1.4
9677.15,1.35,1.2
9679.15,1.33,1.08
9681.15,1.37,1.11
9683.15,1.44,0.98
9686.15,1.5,0.96
9688.15,1.51,0.96
9690.15,1.5,1.02
9692.15,1.53,1.01
9694.15,1.52,0.95
9696.15,1.45,0.96
9698.15,1.38,1.25
9700.15,1.36,1.47
9702.15,1.39,1.65
9703.15,1.46,1.64
9705.15,1.54,1.64
9707.15,1.54,1.58
9709.15,1.47,1.58
9711.15,1.47,1.56
9713.15,1.49,1.62
9715.15,1.43,1.58
9717.15,1.33,1.47
9719.15,1.34,1.35
9721.15,1.34,1.24
9723.15,1.41,1.4
9725.15,1.48,1.33
9728.15,1.46,1.15
9730.15,1.46,1.12
9732.15,1.48,1.14
9734.15,1.44,1.04
9736.15,1.38,0.94
9738.15,1.33,0.9
9740.15,1.35,0.94
9742.15,1.3,0.89
9744.15,1.37,0.95
9746.15,1.41,0.89
9747.15,1.43,0.93
9749.15,1.45,1.04
9751.15,1.52,1.18
9753.15,1.49,1.11
9755.15,1.43,1.01
9757.15,1.34,0.96
9759.15,1.3,1.0
9761.15,1.34,1.14
9763.15,1.42,1.25
9765.15,1.47,1.47
9767.15,1.47,1.41
9770.15,1.48,1.38
9772.15,1.47,1.43
9774.15,1.46,1.52
9776.15,1.45,1.58
9778.15,1.36,1.57
9780.15,1.36,1.57
9782.15,1.39,1.59
9784.15,1.52,1.61
9786.15,1.55,1.47
9788.15,1.57,1.5
9789.15,1.59,1.6
9791.15,1.58,1.6
9793.15,1.57,1.57
9795.15,1.59,1.61
9797.15,1.5,1.5
9799.15,1.47,1.44
9801.15,1.45,1.42
9803.15,1.55,1.6
9805.15,1.58,1.68
9807.15,1.57,1.61
9809.15,1.56,1.58
9811.15,1.58,1.62
9814.15,1.59,1.6
9816.15,1.52,1.44
9818.15,1.4,1.35
9820.15,1.4,1.44
9822.15,1.43,1.43
9824.15,1.5,1.37
9826.15,1.55,1.48
9828.15,1.55,1.46
9830.15,1.57,1.48
9832.15,1.53,1.43
9833.15,1.54,1.39
9835.15,1.43,1.29
9837.15,1.32,1.23
9839.15,1.28,1.25
9841.15,1.32,1.42
9843.15,1.36,1.49
9845.15,1.42,1.52
9847.15,1.44,1.39
9849.15,1.48,1.37
9851.15,1.44,1.2
9853.15,1.41,1.28
9856.15,1.37,1.33
9858.15,1.28,1.29
9860.15,1.29,1.29
9862.15,1.36,1.23
9864.15,1.39,1.18
9866.15,1.43,1.31
9868.15,1.47,1.36
9870.15,1.46,1.44
9872.15,1.45,1.4
9874.15,1.43,1.37
9876.15,1.32,1.3
9877.15,1.24,1.16
9879.15,1.24,1.18
9881.15,1.26,1.21
9883.15,1.32,1.28
9885.15,1.4,1.39
9887.15,1.4,1.23
9889.15,1.4,1.32
9891.15,1.45,1.39
9893.15,1.43,1.43
9895.15,1.42,1.44
9898.15,1.33,1.31
9900.15,1.35,1.39
9902.15,1.35,1.5
9904.15,1.42,1.61
9906.15,1.53,1.67
9908.15,1.52,1.51
9910.15,1.54,1.38
9912.15,1.52,1.41
9914.15,1.49,1.42
9916.15,1.41,1.47
9918.15,1.31,1.37
9920.15,1.33,1.32
9921.15,1.35,1.38
9923.15,1.41,1.37
9925.15,1.49,1.45
9927.15,1.47,1.37
9929.15,1.43,1.31
9931.15,1.45,1.2
9933.15,1.41,1.22
9935.15,1.36,1.32
9937.15,1.28,1.32
9939.15,1.35,1.26
9942.15,1.38,1.3
9944.15,1.44,1.27
9946.15,1.49,1.21
9948.15,1.49,1.18
9950.15,1.51,1.17
9952.15,1.52,1.28
9954.15,1.48,1.38
9956.15,1.47,1.28
9958.15,1.41,1.09
9960.15,1.43,1.1
9962.15,1.5,1.16
9964.15,1.56,1.15
9965.15,1.62,1.18
9967.15,1.6,1.05
9969.15,1.58,1.2
9971.15,1.56,1.26
9973.15,1.56,1.27
9975.15,1.57,1.18
9977.15,1.46,1.11
9979.15,1.46,1.21
9981.15,1.5,1.25
9984.15,1.59,1.27
9986.15,1.6,1.35
9988.15,1.57,1.27
9990.15,1.58,1.32
9992.15,1.58,1.36
9994.15,1.5,1.33
9996.15,1.46,1.27
9998.15,1.37,1.24
10000.15,1.38,1.31
10002.15,1.4,1.55
10004.15,1.4,1.49
10006.15,1.45,1.48
10008.15,1.46,1.36
10009.15,1.47,1.46
10011.15,1.47,1.65
10013.15,1.45,1.58
10015.15,1.38,1.48
10017.15,1.28,1.33
10019.15,1.3,1.32
10021.15,1.29,1.3
10023.15,1.38,1.41
10026.15,1.47,1.46
10028.15,1.46,1.45
10030.15,1.5,1.56
10032.15,1.5,1.39
10034.15,1.45,1.3
10036.15,1.39,1.31
10038.15,1.32,1.22
10040.15,1.32,1.13
10042.15,1.36,1.3
10044.15,1.4,1.45
10046.15,1.52,1.44
10048.15,1.52,1.13
10050.15,1.51,0.96
10051.15,1.52,0.84
10053.15,1.51,1.17
10055.15,1.48,1.31
10057.15,1.38,1.03
10059.15,1.4,0.78
10061.15,1.49,0.77
10063.15,1.51,0.65
10065.15,1.55,0.69
10067.15,1.49,0.47
10070.15,1.5,0.18
10072.15,1.56,0.07
10074.15,1.56,0.01
10076.15,1.45,0.22
10078.15,1.32,0.16
10080.15,1.33,0.16
10082.15,1.37,0.33
10084.15,1.46,0.45
10086.15,1.54,0.25
10088.15,1.49,0.19
10090.15,1.47,0.54
10092.15,1.45,0.51
10093.15,1.4,0.5
10095.15,1.36,0.53
10097.15,1.27,0.33
10099.15,1.33,0.57
10101.15,1.33,0.83
10103.15,1.34,0.85
10105.15,1.45,1.09
10107.15,1.41,0.83
10109.15,1.42,1.04
10112.15,1.4,1.31
10114.15,1.39,1.12
10116.15,1.34,1.07
10118.15,1.25,1.54
10120.15,1.24,1.68
10122.15,1.3,1.52
10124.15,1.42,1.42
10126.15,1.47,1.65
10128.15,1.47,1.89
10130.15,1.5,1.82
10132.15,1.53,1.8
10134.15,1.55,1.88
10136.15,1.49,2.23
10137.15,1.37,2.53
10139.15,1.4,2.53
10141.15,1.41,2.54
10143.15,1.51,2.82
10145.15,1.58,2.87
10147.15,1.53,2.5
10149.15,1.51,2.36
10151.15,1.5,2.6
10154.15,1.49,2.84
10156.15,1.45,2.66
10158.15,1.34,2.16
10160.15,1.37,1.8
10162.15,1.39,1.49
10164.15,1.42,1.09
10166.15,1.48,1.19
10168.15,1.43,1.03
10170.15,1.46,0.49
10172.15,1.44,0.34
10174.15,1.42,0.33
10176.15,1.38,0.0
10178.15,1.31,0.0
10179.15,1.33,0.0
10181.15,1.38,0.0
10183.15,1.45,0.0
10185.15,1.54,0.0
10187.15,1.52,0.0
10189.15,1.52,0.0
10191.15,1.56,0.0
10193.15,1.53,0.0
10195.15,1.51,0.0
10198.15,1.41,0.0
10200.15,1.41,0.0
10202.15,1.44,0.0
10204.15,1.52,0.0
10206.15,1.59,0.0
10208.15,1.5,0.0
10210.15,1.47,0.0
10212.15,1.48,0.0
10214.15,1.46,0.0
10216.15,1.43,0.0
10218.15,1.35,0.0
10220.15,1.38,0.0
10221.15,1.43,0.0
10223.15,1.52,0.0
10225.15,1.61,0.0
10227.15,1.57,0.0
10229.15,1.58,0.0
10231.15,1.59,0.0
10233.15,1.56,0.0
10235.15,1.53,0.0
10237.15,1.47,0.0
10240.15,1.46,0.0
10242.15,1.47,0.0
10244.15,1.51,0.0
10246.15,1.57,0.0
10248.15,1.53,0.0
10250.15,1.53,0.0
10252.15,1.54,0.0
10254.15,1.5,0.0
10256.15,1.48,0.0
10258.15,1.38,0.0
10260.15,1.39,0.08
10262.15,1.39,0.59
10264.15,1.45,0.81
10265.15,1.49,1.07
10267.15,1.44,1.17
10269.15,1.4,1.47
10271.15,1.41,1.8
10273.15,1.4,1.92
10275.15,1.42,2.11
10277.15,1.33,2.18
10279.15,1.37,2.04
10282.15,1.4,1.95
10284.15,1.48,1.97
10286.15,1.55,2.05
10288.15,1.52,2.18
10290.15,1.54,2.39
10292.15,1.53,2.48
10294.15,1.5,2.29
10296.15,1.49,2.3
10298.15,1.41,2.27
10300.15,1.46,2.17
10302.15,1.53,2.07
10304.15,1.61,1.79
10306.15,1.65,1.91
10307.15,1.64,1.93
10309.15,1.67,1.78
10311.15,1.69,1.35
10313.15,1.68,1.22
10315.15,1.62,1.25
10317.15,1.5,1.27
10319.15,1.51,1.43
10321.15,1.55,1.48
10323.15,1.56,1.39
10326.15,1.61,1.28
10328.15,1.61,1.33
10330.15,1.6,1.38
10332.15,1.61,1.69
10334.15,1.58,1.88
10336.15,1.54,2.06
10338.15,1.44,2.0
10340.15,1.45,1.92
10342.15,1.47,2.1
10344.15,1.55,2.33
10346.15,1.61,2.25
10348.15,1.58,2.28
10350.15,1.58,2.2
10351.15,1.58,2.19
10353.15,1.57,2.58
10355.15,1.51,2.74
10357.15,1.41,2.58
10359.15,1.44,2.58
10361.15,1.45,2.55
10363.15,1.55,2.37
10365.15,1.59,2.19
10368.15,1.55,2.0
10370.15,1.53,1.95
10372.15,1.54,2.14
10374.15,1.51,2.13
10376.15,1.47,1.97
10378.15,1.42,1.95
10380.15,1.42,1.85
10382.15,1.48,2.04
10384.15,1.55,2.2
10386.15,1.63,2.2
10388.15,1.6,2.14
10390.15,1.64,2.35
10392.15,1.65,2.46
10393.15,1.63,2.48
10395.15,1.54,2.48
10397.15,1.47,2.33
10399.15,1.45,2.19
10401.15,1.5,2.14
10403.15,1.52,2.05
10405.15,1.58,2.12
10407.15,1.53,2.03
10410.15,1.5,2.44
10412.15,1.53,2.52
10414.15,1.53,2.6
10416.15,1.5,2.66
10418.15,1.42,2.49
10420.15,1.45,2.64
10422.15,1.45,2.88
10424.15,1.47,2.88
10426.15,1.55,2.82
10428.15,1.52,2.69
10430.15,1.51,2.85
10432.15,1.5,2.87
10434.15,1.47,2.64
10435.15,1.43,2.61
10437.15,1.34,2.38
10439.15,1.35,2.49
10441.15,1.38,2.49
10443.15,1.45,2.36
10445.15,1.48,2.27
10447.15,1.44,2.22
10449.15,1.46,2.15
10451.15,1.53,1.98
10454.15,1.52,2.08
10456.15,1.49,2.17
10458.15,1.37,2.22
10460.15,1.33,2.3
10462.15,1.36,2.39
10464.15,1.46,2.43
10466.15,1.51,2.42
10468.15,1.43,2.27
10470.15,1.41,2.41
10472.15,1.44,2.55
10474.15,1.39,2.63
10476.15,1.37,2.68
10478.15,1.27,2.51
10479.15,1.3,2.53
10481.15,1.32,2.48
10483.15,1.36,2.43
10485.15,1.42,2.61
10487.15,1.41,2.65
10489.15,1.45,2.79
10491.15,1.45,2.73
10493.15,1.4,2.69
10496.15,1.34,2.7
10498.15,1.22,2.6
10500.15,1.24,2.65
10502.15,1.3,2.58
10504.15,1.38,2.62
10506.15,1.38,2.61
10508.15,1.35,2.54
10510.15,1.39,2.55
10512.15,1.39,2.54
10514.15,1.39,2.57
10516.15,1.33,2.67
10518.15,1.18,2.63
10520.15,1.21,2.43
10521.15,1.29,2.49
10523.15,1.36,2.64
10525.15,1.42,2.49
10527.15,1.4,2.15
10529.15,1.42,1.93
10531.15,1.43,1.79
10533.15,1.41,1.6
10535.15,1.35,1.72
10538.15,1.28,1.62
10540.15,1.33,1.55
10542.15,1.32,1.35
10544.15,1.37,1.29
10546.15,1.44,1.31
10548.15,1.43,1.1
10550.15,1.45,1.24
10552.15,1.45,1.11
10554.15,1.44,1.02
10556.15,1.39,0.98
10558.15,1.29,0.86
10560.15,1.29,0.91
10562.15,1.32,0.92
10563.15,1.39,0.87
10565.15,1.49,0.82
10567.15,1.45,0.64
10569.15,1.45,0.65
10571.15,1.41,0.66
10573.15,1.33,0.76
10575.15,1.25,0.75
10577.15,1.16,0.82
10579.15,1.15,0.98
10582.15,1.19,1.02
10584.15,1.27,1.05
10586.15,1.36,1.24
10588.15,1.32,1.14
10590.15,1.34,0.97
10592.15,1.39,0.83
10594.15,1.42,0.8
10596.15,1.36,0.83
10598.15,1.26,0.83
10600.15,1.25,0.94
10602.15,1.28,1.17
10604.15,1.38,1.19
10606.15,1.45,1.07
10607.15,1.41,0.91
10609.15,1.38,1.0
10611.15,1.42,1.11
10613.15,1.4,1.33
10615.15,1.36,1.55
10617.15,1.31,1.37
10619.15,1.33,1.28
10621.15,1.35,1.34
10624.15,1.42,1.43
10626.15,1.47,1.41
10628.15,1.46,1.27
10630.15,1.48,1.35
10632.15,1.5,1.4
10634.15,1.48,1.51
10636.15,1.43,1.64
10638.15,1.34,1.55
10640.15,1.34,1.61
10642.15,1.41,1.62
10644.15,1.5,1.5
10646.15,1.57,1.58
10648.15,1.53,1.57
10649.15,1.55,1.52
10651.15,1.59,1.46
10653.15,1.54,1.56
10655.15,1.48,1.69
10657.15,1.38,1.68
10659.15,1.42,1.75
10661.15,1.46,1.84
10663.15,1.49,1.92
10666.15,1.48,1.99
10668.15,1.46,1.92
10670.15,1.43,1.89
10672.15,1.44,1.89
10674.15,1.42,1.9
10676.15,1.38,1.65
10678.15,1.27,1.53
10680.15,1.29,1.61
10682.15,1.35,1.67
10684.15,1.41,1.73
10686.15,1.48,1.72
10688.15,1.45,1.66
10690.15,1.47,1.81
10691.15,1.46,1.92
10693.15,1.42,1.76
10695.15,1.38,1.59
10697.15,1.3,1.57
10699.15,1.31,1.58
10701.15,1.39,1.56
10703.15,1.42,1.61
10705.15,1.47,1.55
10707.15,1.45,1.58
10710.15,1.46,1.77
10712.15,1.46,1.8
10714.15,1.44,1.84
10716.15,1.42,1.74
10718.15,1.3,1.77
10720.15,1.31,1.83
10722.15,1.38,1.76
10724.15,1.45,1.72
10726.15,1.49,1.63
10728.15,1.5,1.57
10730.15,1.51,1.83
10732.15,1.53,1.88
10734.15,1.53,1.91
10735.15,1.46,1.92
10737.15,1.4,1.85
10739.15,1.41,1.77
10741.15,1.46,1.77
10743.15,1.54,1.65
10745.15,1.63,1.6
10747.15,1.59,1.44
10749.15,1.62,1.57
10752.15,1.52,1.34
10754.15,1.51,1.27
10756.15,1.45,1.37
10758.15,1.37,1.19
10760.15,1.4,1.0
10762.15,1.46,1.04
10764.15,1.47,1.12
10766.15,1.53,1.21
10768.15,1.5,1.18
10770.15,1.48,1.17
10772.15,1.51,1.12
10774.15,1.56,1.36
10776.15,1.43,1.43
10777.15,1.34,1.26
10779.15,1.34,1.23
10781.15,1.38,1.27
10783.15,1.47,1.31
10785.15,1.51,1.26
10787.15,1.47,1.07
10789.15,1.5,0.98
10791.15,1.5,0.92
10794.15,1.47,0.95
10796.15,1.39,1.08
10798.15,1.33,1.19
10800.15,1.38,1.34
10802.15,1.4,1.32
10804.15,1.47,1.39
10806.15,1.5,1.39
10808.15,1.5,1.46
10810.15,1.5,1.66
10812.15,1.52,1.53
10814.15,1.46,1.34
10816.15,1.4,1.18
10818.15,1.3,1.15
10819.15,1.32,1.13
10821.15,1.36,1.1
10823.15,1.44,1.29
10825.15,1.48,1.38
10827.15,1.46,1.43
10829.15,1.49,1.43
10831.15,1.52,1.36
10833.15,1.48,1.27
10835.15,1.43,1.34
10838.15,1.31,1.26
10840.15,1.35,1.25
10842.15,1.36,1.23
10844.15,1.49,1.3
10846.15,1.51,1.19
10848.15,1.5,1.17
10850.15,1.52,1.24
10852.15,1.47,1.38
10854.15,1.46,1.43
10856.15,1.43,1.35
10858.15,1.32,1.24
10860.15,1.34,1.32
10862.15,1.44,1.47
10863.15,1.52,1.46
10865.15,1.56,1.44
10867.15,1.5,1.44
10869.15,1.5,1.59
10871.15,1.51,1.67
10873.15,1.49,1.71
10875.15,1.44,1.61
10877.15,1.41,1.54
10880.15,1.46,1.88
10882.15,1.49,2.08
10884.15,1.55,2.04
10886.15,1.61,1.96
10888.15,1.56,1.91
10890.15,1.57,1.96
10892.15,1.58,1.97
10894.15,1.57,1.99
10896.15,1.49,1.94
10898.15,1.39,1.79
10900.15,1.39,1.93
10902.15,1.48,2.06
10904.15,1.56,2.1
10905.15,1.61,2.13
10907.15,1.55,2.04
10909.15,1.54,2.1
10911.15,1.55,2.05
10913.15,1.53,1.92
10915.15,1.45,1.9
10917.15,1.35,1.89
10919.15,1.39,1.85
10922.15,1.45,1.89
10924.15,1.51,1.94
10926.15,1.52,1.85
10928.15,1.47,1.73
10930.15,1.42,1.8
10932.15,1.41,1.88
10934.15,1.41,1.81
10936.15,1.34,1.61
10938.15,1.25,1.49
10940.15,1.25,1.59
10942.15,1.33,1.75
10944.15,1.39,1.88
10946.15,1.45,1.95
10947.15,1.43,1.86
10949.15,1.44,1.81
10951.15,1.47,1.76
10953.15,1.43,1.73
10955.15,1.43,1.73
10957.15,1.35,1.47
10959.15,1.37,1.44
10961.15,1.38,1.48
10963.15,1.47,1.56
10966.15,1.48,1.64
10968.15,1.45,1.63
10970.15,1.45,1.7
10972.15,1.41,1.68
10974.15,1.36,1.71
10976.15,1.29,1.58
10978.15,1.24,1.45
10980.15,1.27,1.49
10982.15,1.36,1.62
10984.15,1.43,1.58
10986.15,1.47,1.43
10988.15,1.46,1.45
10990.15,1.46,1.58
10991.15,1.47,1.48
10993.15,1.5,1.49
10995.15,1.45,1.49
10997.15,1.37,1.41
10999.15,1.39,1.46
11001.15,1.49,1.57
11003.15,1.6,1.55
11005.15,1.62,1.36
11008.15,1.58,1.29
11010.15,1.6,1.24
11012.15,1.55,1.26
11014.15,1.52,1.26
11016.15,1.47,1.21
11018.15,1.42,1.34
11020.15,1.45,1.29
11022.15,1.51,1.09
11024.15,1.56,1.01
11026.15,1.57,0.92
11028.15,1.57,1.06
11030.15,1.56,0.94
11032.15,1.58,0.86
11033.15,1.54,1.01
11035.15,1.46,1.03
11037.15,1.39,1.15
11039.15,1.4,1.2
11041.15,1.43,1.16
11043.15,1.47,1.01
11045.15,1.52,1.19
11047.15,1.5,1.37
11050.15,1.47,1.33
11052.15,1.47,1.63
11054.15,1.45,1.91
11056.15,1.39,1.73
11058.15,1.31,1.65
11060.15,1.36,1.71
11062.15,1.42,1.74
11064.15,1.45,1.72
11066.15,1.45,1.63
11068.15,1.42,1.36
11070.15,1.46,1.56
11072.15,1.49,1.55
11074.15,1.43,1.53
11075.15,1.36,1.62
11077.15,1.27,1.65
11079.15,1.3,1.82
11081.15,1.33,1.85
11083.15,1.43,2.09
11085.15,1.44,2.23
11087.15,1.38,2.14
11089.15,1.36,2.22
11091.15,1.34,2.34
11094.15,1.35,2.3
11096.15,1.27,1.82
11098.15,1.26,1.57
11100.15,1.31,1.55
11102.15,1.36,1.54
11104.15,1.41,1.63
11106.15,1.41,1.63
11108.15,1.41,1.31
11110.15,1.44,1.29
11112.15,1.44,1.58
11114.15,1.42,1.41
11116.15,1.38,1.13
11118.15,1.3,0.92
11119.15,1.28,1.15
11121.15,1.32,1.38
11123.15,1.41,1.32
11125.15,1.46,0.85
11127.15,1.43,0.58
11129.15,1.47,0.86
11131.15,1.54,1.06
11133.15,1.48,1.08
11136.15,1.41,1.06
11138.15,1.39,0.95
11140.15,1.44,1.03
11142.15,1.49,0.95
11144.15,1.54,0.75
11146.15,1.56,0.45
11148.15,1.54,0.0
11150.15,1.53,0.0
11152.15,1.54,0.0
11154.15,1.5,0.0
11156.15,1.47,0.03
11158.15,1.39,0.07
11160.15,1.4,0.02
11161.15,1.48,0.1
11163.15,1.53,0.0
11165.15,1.55,0.15
11167.15,1.53,0.39
11169.15,1.53,0.36
11171.15,1.49,0.66
11173.15,1.43,0.67
11175.15,1.37,0.41
11178.15,1.32,0.27
11180.15,1.35,0.0
11182.15,1.45,0.0
11184.15,1.52,0.0
11186.15,1.55,0.0
11188.15,1.56,0.0
11190.15,1.58,0.0
11192.15,1.54,0.0
11194.15,1.5,0.0
11196.15,1.47,0.0
11198.15,1.44,0.0
11200.15,1.5,0.0
11202.15,1.54,0.0
11203.15,1.6,0.0
11205.15,1.63,0.69
11207.15,1.6,0.87
11209.15,1.65,1.35
11211.15,1.6,1.94
11213.15,1.55,2.58
11215.15,1.45,3.3
11217.15,1.43,3.3
11219.15,1.44,3.3
11222.15,1.51,3.3
11224.15,1.61,3.3
11226.15,1.65,3.3
11228.15,1.68,3.3
11230.15,1.67,3.3
11232.15,1.64,3.3
11234.15,1.59,3.3
11236.15,1.5,3.3
11238.15,1.44,3.3
11240.15,1.45,3.3
11242.15,1.5,3.3
11244.15,1.55,3.3
11246.15,1.62,3.3
11247.15,1.61,3.3
11249.15,1.6,3.3
11251.15,1.55,3.3
11253.15,1.5,3.3
11255.15,1.4,3.3
11257.15,1.32,3.3
11259.15,1.35,3.3
11261.15,1.35,3.3
11264.15,1.4,3.3
11266.15,1.46,3.3
11268.15,1.46,3.3
11270.15,1.45,3.3
11272.15,1.46,3.3
11274.15,1.4,3.3
11276.15,1.35,3.3
11278.15,1.33,3.3
11280.15,1.31,3.3
11282.15,1.39,3.3
11284.15,1.46,3.3
11286.15,1.5,3.3
11288.15,1.53,3.3
11289.15,1.58,3.3
11291.15,1.49,3.3
11293.15,1.44,3.3
11295.15,1.38,3.3
11297.15,1.33,3.3
11299.15,1.32,3.3
11301.15,1.4,3.3
11303.15,1.5,3.3
11306.15,1.52,3.3
11308.15,1.5,3.3
11310.15,1.49,3.3
11312.15,1.48,3.3
11314.15,1.49,3.3
11316.15,1.44,3.3
11318.15,1.38,3.3
11320.15,1.41,3.3
11322.15,1.46,3.3
11324.15,1.54,2.84
11326.15,1.56,2.53
11328.15,1.55,2.03
11330.15,1.52,1.05
11331.15,1.49,0.64
11333.15,1.46,0.0
11335.15,1.38,0.0
11337.15,1.35,0.0
11339.15,1.36,0.15
11341.15,1.43,1.0
11343.15,1.5,1.52
11345.15,1.54,1.41
11347.15,1.54,0.97
11350.15,1.56,0.95
11352.15,1.56,1.27
11354.15,1.52,0.98
11356.15,1.46,0.62
11358.15,1.42,0.06
11360.15,1.44,0.05
11362.15,1.56,0.28
11364.15,1.56,0.17
11366.15,1.6,0.35
11368.15,1.6,0.0
11370.15,1.57,0.0
11372.15,1.49,0.0
11374.15,1.46,0.13
11375.15,1.39,0.45
11377.15,1.35,0.58
11379.15,1.38,0.69
11381.15,1.45,1.1
11383.15,1.52,1.37
11385.15,1.53,0.79
11387.15,1.49,0.75
11389.15,1.46,0.73
11392.15,1.38,0.51
11394.15,1.32,0.4
11396.15,1.23,0.55
11398.15,1.19,0.46
11400.15,1.2,0.47
11402.15,1.25,0.99
11404.15,1.34,1.19
11406.15,1.37,0.98
11408.15,1.37,0.86
11410.15,1.38,0.4
11412.15,1.33,0.08
11414.15,1.3,0.0
11416.15,1.24,0.0
11417.15,1.24,0.0
11419.15,1.25,0.39
11421.15,1.33,0.84
11423.15,1.39,0.92
11425.15,1.46,1.12
11427.15,1.5,1.05
11429.15,1.49,0.87
11431.15,1.47,1.02
11434.15,1.45,0.96
11436.15,1.34,0.61
11438.15,1.34,0.0
11440.15,1.4,0.0
11442.15,1.44,0.0
11444.15,1.49,0.0
11446.15,1.53,0.0
11448.15,1.53,0.0
11450.15,1.55,0.0
11452.15,1.5,0.0
11454.15,1.49,0.0
11456.15,1.44,0.0
11458.15,1.41,0.0
11459.15,1.47,0.0
11461.15,1.46,0.0
11463.15,1.47,0.0
11465.15,1.54,0.0
11467.15,1.57,0.0
11469.15,1.58,0.0
11471.15,1.54,0.0
11473.15,1.47,0.38
11475.15,1.34,0.45
11478.15,1.31,0.54
11480.15,1.31,0.67
11482.15,1.31,0.88
11484.15,1.36,1.03
11486.15,1.34,1.25
11488.15,1.34,1.3
11490.15,1.35,1.35
11492.15,1.35,1.16
11494.15,1.33,1.08
11496.15,1.23,1.14
11498.15,1.18,0.81
11500.15,1.17,0.5
11502.15,1.21,0.81
11503.15,1.29,1.16
11505.15,1.33,1.01
11507.15,1.35,1.22
11509.15,1.35,1.18
11511.15,1.31,0.84
11513.15,1.25,0.56
11515.15,1.11,0.53
11517.15,1.08,0.87
11520.15,1.12,1.06
11522.15,1.25,1.29
11524.15,1.31,1.35
11526.15,1.37,1.05
11528.15,1.38,0.73
11530.15,1.4,0.81
11532.15,1.44,0.95
11534.15,1.37,0.65
11536.15,1.27,0.32
11538.15,1.25,0.0
11540.15,1.28,0.0
11542.15,1.35,0.0
11544.15,1.45,0.0
11545.15,1.45,0.0
11547.15,1.48,0.0
11549.15,1.48,0.0
11551.15,1.41,0.0
11553.15,1.39,0.0
11555.15,1.33,0.0
11557.15,1.33,0.0
11559.15,1.35,0.0
11562.15,1.42,0.0
11564.15,1.44,0.0
11566.15,1.46,0.0
11568.15,1.48,0.0
11570.15,1.47,0.0
11572.15,1.44,0.0
11574.15,1.4,0.0
11576.15,1.29,0.0
11578.15,1.3,0.0
11580.15,1.33,0.0
11582.15,1.45,0.0
11584.15,1.5,0.0
11586.15,1.54,0.0
11587.15,1.58,0.0
11589.15,1.6,0.09
11591.15,1.56,0.0
11593.15,1.55,0.0
11595.15,1.44,0.0
11597.15,1.42,0.01
11599.15,1.46,0.29
11601.15,1.61,0.47
11603.15,1.69,0.62
11606.15,1.68,0.86
11608.15,1.65,1.15
11610.15,1.62,1.03
11612.15,1.55,1.15
11614.15,1.5,1.45
11616.15,1.41,1.7
11618.15,1.4,2.14
11620.15,1.4,2.38
11622.15,1.44,2.51
11624.15,1.55,2.88
11626.15,1.58,2.78
11628.15,1.63,2.58
11630.15,1.59,2.45
11631.15,1.49,2.35
11633.15,1.46,2.54
11635.15,1.41,2.57
11637.15,1.42,2.46
11639.15,1.42,2.56
11641.15,1.45,2.65
11643.15,1.49,2.54
11645.15,1.51,2.2
11648.15,1.54,2.02
11650.15,1.52,1.75
11652.15,1.52,1.68
11654.15,1.49,1.61
11656.15,1.39,1.41
11658.15,1.4,1.14
11660.15,1.43,1.09
11662.15,1.53,0.91
11664.15,1.59,1.06
11666.15,1.62,1.25
11668.15,1.64,1.23
11670.15,1.64,1.42
11672.15,1.59,1.21
11673.15,1.53,0.87
11675.15,1.43,0.73
11677.15,1.44,0.58
11679.15,1.45,0.49
11681.15,1.54,0.64
11683.15,1.54,0.65
11685.15,1.55,0.55
11687.15,1.55,0.47
11690.15,1.55,0.52
11692.15,1.52,0.61
11694.15,1.5,0.73
11696.15,1.41,0.86
11698.15,1.35,0.83
11700.15,1.35,0.7
11702.15,1.43,0.76
11704.15,1.44,0.68
11706.15,1.49,0.51
11708.15,1.55,0.42
11710.15,1.55,0.52
11712.15,1.49,0.94
11714.15,1.47,1.25
11715.15,1.37,1.16
11717.15,1.35,1.12
11719.15,1.37,1.06
11721.15,1.43,1.11
11723.15,1.48,1.1
11725.15,1.51,0.93
11727.15,1.51,0.81
11729.15,1.47,0.92
11731.15,1.45,1.0
11734.15,1.41,1.05
11736.15,1.33,1.13
11738.15,1.35,1.52
11740.15,1.39,2.11
11742.15,1.42,2.36
11744.15,1.5,2.4
11746.15,1.52,2.71
11748.15,1.58,2.75
11750.15,1.54,2.2
11752.15,1.5,1.63
11754.15,1.5,1.48
11756.15,1.38,1.46
11758.15,1.35,1.34
11759.15,1.41,1.37
11761.15,1.45,1.46
11763.15,1.53,1.49
11765.15,1.56,1.37
11767.15,1.56,1.53
11769.15,1.49,1.62
11771.15,1.47,1.68
11773.15,1.36,1.62
11776.15,1.27,1.48
11778.15,1.23,1.43
11780.15,1.31,1.45
11782.15,1.39,1.31
11784.15,1.47,1.16
11786.15,1.49,1.13
11788.15,1.49,1.18
11790.15,1.49,1.3
11792.15,1.48,1.36
11794.15,1.46,1.48
11796.15,1.35,1.79
11798.15,1.34,1.78
11800.15,1.34,1.65
11801.15,1.43,1.73
11803.15,1.5,1.72
11805.15,1.5,1.56
11807.15,1.53,1.64
11809.15,1.54,1.61
11811.15,1.51,1.59
11813.15,1.5,1.69
11815.15,1.36,1.7
11818.15,1.35,1.87
11820.15,1.37,1.88
11822.15,1.44,1.73
11824.15,1.52,1.6
11826.15,1.5,1.32
11828.15,1.51,1.07
11830.15,1.55,0.97
11832.15,1.5,1.04
11834.15,1.44,1.04
11836.15,1.33,1.13
11838.15,1.33,1.18
11840.15,1.3,1.24
11842.15,1.38,1.45
11843.15,1.45,1.52
11845.15,1.47,1.48
11847.15,1.47,1.49
11849.15,1.49,1.42
11851.15,1.4,1.55
11853.15,1.35,1.8
11855.15,1.27,2.02
11857.15,1.3,2.19
11859.15,1.31,2.15
11862.15,1.4,2.27
11864.15,1.47,2.37
11866.15,1.46,2.2
11868.15,1.51,2.04
11870.15,1.54,2.23
11872.15,1.49,2.32
11874.15,1.45,2.33
11876.15,1.38,2.43
11878.15,1.34,2.59
11880.15,1.38,2.72
11882.15,1.49,2.8
11884.15,1.53,2.82
11886.15,1.55,2.7
11887.15,1.52,2.61
11889.15,1.54,2.55
11891.15,1.46,2.39
11893.15,1.42,2.26
11895.15,1.33,2.13
11897.15,1.34,1.97
11899.15,1.36,1.89
11901.15,1.46,1.63
11904.15,1.59,1.57
11906.15,1.61,1.55
11908.15,1.61,1.44
11910.15,1.59,1.34
11912.15,1.58,1.2
11914.15,1.55,1.16
11916.15,1.41,1.0
11918.15,1.37,1.11
11920.15,1.33,1.18
11922.15,1.42,1.2
11924.15,1.54,1.08
11926.15,1.56,0.83
11928.15,1.58,0.83
11929.15,1.6,0.9
11931.15,1.53,0.9
11933.15,1.46,0.88
11935.15,1.41,0.92
11937.15,1.42,0.98
11939.15,1.46,0.97
11941.15,1.52,1.05
11943.15,1.56,1.23
11946.15,1.57,1.34
11948.15,1.62,1.39
11950.15,1.57,1.38
11952.15,1.54,1.44
11954.15,1.51,1.57
11956.15,1.41,1.71
11958.15,1.41,1.81
11960.15,1.46,1.91
11962.15,1.47,1.97
11964.15,1.55,2.09
11966.15,1.56,1.93
11968.15,1.64,1.99
11970.15,1.58,2.08
11971.15,1.5,1.94
11973.15,1.51,1.71
11975.15,1.39,1.74
11977.15,1.36,2.02
11979.15,1.4,2.26
11981.15,1.45,2.38
11983.15,1.5,2.45
11985.15,1.51,2.46
11987.15,1.53,2.55
11990.15,1.46,2.46
11992.15,1.45,2.57
11994.15,1.42,2.45
11996.15,1.33,2.31
11998.15,1.31,2.48
12000.15,1.33,2.42
12002.15,1.45,2.33
12004.15,1.49,2.2
12006.15,1.49,2.13
12008.15,1.51,2.1
12010.15,1.49,1.98
12012.15,1.51,2.06
12014.15,1.44,2.17
12015.15,1.35,2.18
12017.15,1.37,2.27
12019.15,1.36,2.11
12021.15,1.45,1.98
12023.15,1.55,1.82
12025.15,1.57,1.7
12027.15,1.57,1.74
12029.15,1.56,1.77
12032.15,1.53,1.81
12034.15,1.43,1.67
12036.15,1.34,1.44
12038.15,1.34,1.48
12040.15,1.35,1.54
12042.15,1.45,1.5
12044.15,1.55,1.37
12046.15,1.55,1.11
12048.15,1.52,1.13
12050.15,1.52,1.14
12052.15,1.51,1.19
12054.15,1.46,0.95
12056.15,1.36,0.96
12057.15,1.4,1.11
12059.15,1.38,1.14
12061.15,1.47,1.19
12063.15,1.57,1.14
12065.15,1.55,0.96
12067.15,1.57,0.88
12069.15,1.54,0.94
12071.15,1.48,1.19
12074.15,1.43,1.15
12076.15,1.35,0.95
12078.15,1.4,1.1
12080.15,1.41,1.1
12082.15,1.49,0.96
12084.15,1.55,1.1
12086.15,1.52,1.15
12088.15,1.51,1.15
12090.15,1.5,1.24
12092.15,1.45,1.26
12094.15,1.42,1.28
12096.15,1.33,1.18
12098.15,1.28,1.0
12099.15,1.32,0.94
12101.15,1.41,0.99
12103.15,1.51,1.2
12105.15,1.49,1.07
12107.15,1.5,0.91
12109.15,1.52,1.05
12111.15,1.51,1.06
12113.15,1.49,1.12
12115.15,1.37,1.04
12118.15,1.37,0.89
12120.15,1.34,0.65
12122.15,1.44,0.61
12124.15,1.55,0.79
12126.15,1.53,1.09
12128.15,1.54,1.14
12130.15,1.5,1.09
12132.15,1.47,1.16
12134.15,1.45,1.01
12136.15,1.35,0.6
12138.15,1.34,0.52
12140.15,1.37,0.65
12142.15,1.35,0.68
12143.15,1.38,0.83
12145.15,1.36,0.78
12147.15,1.4,0.67
12149.15,1.4,1.12
12151.15,1.37,1.31
12153.15,1.34,1.3
12155.15,1.25,1.09
12157.15,1.27,0.82
12160.15,1.3,0.61
12162.15,1.41,0.98
12164.15,1.43,0.95
12166.15,1.41,0.81
12168.15,1.45,0.61
12170.15,1.43,0.63
12172.15,1.42,0.91
12174.15,1.38,0.63
12176.15,1.28,0.57
12178.15,1.31,0.85
12180.15,1.34,1.23
12182.15,1.38,1.28
12184.15,1.46,1.22
12185.15,1.47,1.02
12187.15,1.48,1.29
12189.15,1.46,1.42
12191.15,1.44,1.4
12193.15,1.39,1.52
12195.15,1.32,1.67
12197.15,1.35,1.94
12199.15,1.38,2.0
12202.15,1.46,2.04
12204.15,1.51,2.04
12206.15,1.49,1.97
12208.15,1.51,2.04
12210.15,1.48,2.31
12212.15,1.45,2.21
12214.15,1.4,2.14
12216.15,1.3,1.92
12218.15,1.32,1.56
12220.15,1.37,1.53
12222.15,1.41,1.58
12224.15,1.49,1.96
12226.15,1.51,1.86
12227.15,1.53,1.59
12229.15,1.51,1.49
12231.15,1.51,1.26
12233.15,1.46,1.41
12235.15,1.4,1.41
12237.15,1.39,1.68
12239.15,1.42,1.73
12241.15,1.47,1.43
12243.15,1.52,1.07
12246.15,1.54,0.8
12248.15,1.55,0.95
12250.15,1.54,0.88
12252.15,1.49,1.15
12254.15,1.48,1.68
12256.15,1.35,1.47
12258.15,1.35,0.92
12260.15,1.43,0.67
12262.15,1.51,0.23
12264.15,1.57,0.11
12266.15,1.55,0.11
12268.15,1.57,0.35
12270.15,1.56,0.41
12271.15,1.48,0.49
12273.15,1.41,0.75
12275.15,1.32,0.68
12277.15,1.31,0.42
12279.15,1.35,0.49
12281.15,1.47,0.77
12283.15,1.54,0.79
12285.15,1.53,0.81
12288.15,1.62,0.83
12290.15,1.63,0.99
12292.15,1.6,0.6
12294.15,1.53,0.54
12296.15,1.45,0.64
12298.15,1.45,0.83
12300.15,1.48,1.0
12302.15,1.53,1.14
12304.15,1.61,1.65
12306.15,1.6,1.63
12308.15,1.62,1.56
12310.15,1.62,1.56
12312.15,1.64,1.55
12313.15,1.63,1.26
12315.15,1.53,1.21
12317.15,1.54,1.39
12319.15,1.53,1.68
12321.15,1.58,1.95
12323.15,1.6,2.22
12325.15,1.62,2.32
12327.15,1.63,2.32
12330.15,1.59,1.83
12332.15,1.5,1.58
12334.15,1.48,1.33
12336.15,1.38,1.22
12338.15,1.39,1.47
12340.15,1.52,1.64
12342.15,1.63,1.43
12344.15,1.68,1.09
12346.15,1.66,0.6
12348.15,1.65,0.62
12350.15,1.6,0.75
12352.15,1.51,0.76
12354.15,1.49,0.73
12355.15,1.35,0.56
12357.15,1.34,0.31
12359.15,1.34,0.06
12361.15,1.39,0.22
12363.15,1.42,0.55
12365.15,1.42,0.72
12367.15,1.44,1.34
12369.15,1.46,1.67
12371.15,1.38,1.88
12374.15,1.34,2.11
12376.15,1.25,1.83
12378.15,1.27,1.71
12380.15,1.32,1.38
12382.15,1.39,1.37
12384.15,1.45,1.92
12386.15,1.44,1.97
12388.15,1.44,1.81
12390.15,1.39,1.52
12392.15,1.34,1.4
12394.15,1.33,1.03
12396.15,1.25,0.89
12398.15,1.31,1.03
12399.15,1.31,0.99
12401.15,1.43,0.6
12403.15,1.51,0.25
12405.15,1.51,0.0
12407.15,1.55,0.0
12409.15,1.49,0.12
12411.15,1.38,0.12
12413.15,1.37,0.22
12416.15,1.28,0.12
12418.15,1.32,0.39
12420.15,1.35,0.65
12422.15,1.44,0.48
12424.15,1.53,0.39
12426.15,1.53,0.56
12428.15,1.55,0.94
12430.15,1.56,1.18
12432.15,1.51,1.11
12434.15,1.45,1.25
12436.15,1.35,1.25
12438.15,1.34,1.12
12440.15,1.41,1.41
12441.15,1.48,1.39
12443.15,1.54,1.32
12445.15,1.53,1.35
12447.15,1.55,1.27
12449.15,1.52,1.04
12451.15,1.49,0.55
12453.15,1.43,0.3
12455.15,1.29,0.31
12458.15,1.28,0.43
12460.15,1.32,0.69
12462.15,1.39,0.63
12464.15,1.48,0.89
12466.15,1.45,1.4
12468.15,1.48,1.61
12470.15,1.43,1.24
12472.15,1.44,0.99
12474.15,1.39,0.98
12476.15,1.34,1.1
12478.15,1.4,1.28
12480.15,1.49,1.51
12482.15,1.54,1.77
12483.15,1.6,1.99
12485.15,1.56,2.01
12487.15,1.57,2.0
12489.15,1.56,2.11
12491.15,1.49,2.11
12493.15,1.44,2.05
12495.15,1.34,2.01
12497.15,1.38,2.23
12499.15,1.42,2.42
12502.15,1.45,2.5
12504.15,1.52,2.66
12506.15,1.53,2.46
12508.15,1.52,2.32
12510.15,1.53,2.15
12512.15,1.49,1.86
12514.15,1.44,1.71
12516.15,1.34,1.59
12518.15,1.37,1.49
12520.15,1.39,1.56
12522.15,1.39,1.61
12524.15,1.48,1.78
12526.15,1.46,1.53
12527.15,1.47,1.64
12529.15,1.47,1.67
12531.15,1.45,1.5
12533.15,1.44,1.45
12535.15,1.33,1.45
12537.15,1.32,1.68
12539.15,1.33,1.98
12541.15,1.38,2.1
12544.15,1.44,2.11
12546.15,1.43,2.02
12548.15,1.47,1.92
12550.15,1.49,1.93
12552.15,1.48,1.94
12554.15,1.41,2.07
12556.15,1.28,2.15
12558.15,1.31,2.2
12560.15,1.36,2.25
12562.15,1.42,2.3
12564.15,1.46,2.61
12566.15,1.45,2.8
12568.15,1.46,2.96
12569.15,1.46,2.84
12571.15,1.42,2.9
12573.15,1.36,3.06
12575.15,1.26,3.3
12577.15,1.28,3.3
12579.15,1.29,3.3
12581.15,1.36,3.25
12583.15,1.42,3.04
12586.15,1.39,2.98
12588.15,1.41,3.22
12590.15,1.38,3.04
12592.15,1.3,2.93
12594.15,1.19,2.66
12596.15,1.09,2.48
12598.15,1.12,2.59
12600.15,1.12,2.58
12602.15,1.11,2.43
12604.15,1.17,2.37
12606.15,1.18,2.26
12608.15,1.2,2.16
12610.15,1.21,2.16
12611.15,1.17,2.31
12613.15,1.08,2.22
12615.15,1.04,2.0
12617.15,1.1,1.98
12619.15,1.16,1.92
12621.15,1.3,1.91
12623.15,1.35,1.88
12625.15,1.31,1.85
12627.15,1.37,2.19
12630.15,1.38,2.23
12632.15,1.31,2.06
12634.15,1.29,2.08
12636.15,1.22,2.06
12638.15,1.27,2.16
12640.15,1.35,2.16
12642.15,1.45,2.24
12644.15,1.52,2.35
12646.15,1.54,2.24
12648.15,1.54,2.25
12650.15,1.5,2.32
12652.15,1.46,2.55
12654.15,1.42,2.54
12655.15,1.3,2.39
12657.15,1.31,2.4
12659.15,1.4,2.52
12661.15,1.43,2.38
12663.15,1.5,2.46
12665.15,1.53,2.47
12667.15,1.57,2.21
12669.15,1.54,2.04
12672.15,1.5,2.02
12674.15,1.44,2.05
12676.15,1.37,1.99
12678.15,1.43,1.99
12680.15,1.47,2.06
12682.15,1.51,2.04
12684.15,1.54,1.85
12686.15,1.55,1.74
12688.15,1.54,1.75
12690.15,1.54,1.67
12692.15,1.54,1.66
12694.15,1.51,1.67
12696.15,1.44,1.4
12697.15,1.49,1.38
12699.15,1.54,1.45
12701.15,1.62,1.41
12703.15,1.66,1.38
12705.15,1.67,1.42
12707.15,1.72,1.5
12709.15,1.68,1.4
12711.15,1.68,1.33
12714.15,1.56,1.29
12716.15,1.48,1.2
12718.15,1.48,1.11
12720.15,1.5,1.08
12722.15,1.58,0.96
12724.15,1.64,0.84
12726.15,1.64,0.81
12728.15,1.64,0.9
12730.15,1.65,1.05
12732.15,1.62,1.04
12734.15,1.56,0.93
12736.15,1.42,0.96
12738.15,1.41,1.07
12739.15,1.43,0.98
12741.15,1.51,0.89
12743.15,1.58,0.94
12745.15,1.57,0.9
12747.15,1.56,0.95
12749.15,1.55,0.94
12751.15,1.48,0.84
12753.15,1.44,0.83
12755.15,1.35,0.9
12758.15,1.39,0.95
12760.15,1.43,1.1
12762.15,1.47,1.29
12764.15,1.5,1.23
12766.15,1.49,1.06
12768.15,1.5,1.05
12770.15,1.51,1.26
12772.15,1.46,1.22
12774.15,1.36,1.07
12776.15,1.3,0.99
12778.15,1.34,1.09
12780.15,1.38,1.25
12782.15,1.46,1.38
12783.15,1.55,1.44
12785.15,1.52,1.41
12787.15,1.5,1.34
12789.15,1.48,1.3
12791.15,1.45,1.37
12793.15,1.4,1.34
12795.15,1.32,1.27
12797.15,1.35,1.31
12800.15,1.42,1.25
12802.15,1.53,1.35
12804.15,1.6,1.48
12806.15,1.58,1.58
12808.15,1.62,1.55
12810.15,1.58,1.45
12812.15,1.54,1.5
12814.15,1.48,1.43
12816.15,1.4,1.47
12818.15,1.43,1.7
12820.15,1.45,1.75
12822.15,1.51,1.75
12824.15,1.56,1.83
12825.15,1.52,1.68
12827.15,1.55,1.66
12829.15,1.51,1.66
12831.15,1.47,1.63
12833.15,1.41,1.56
12835.15,1.3,1.52
12837.15,1.32,1.48
12839.15,1.37,1.44
12842.15,1.46,1.46
12844.15,1.52,1.45
12846.15,1.49,1.25
12848.15,1.47,1.29
12850.15,1.44,1.26
12852.15,1.41,1.2
12854.15,1.38,1.35
12856.15,1.28,1.33
12858.15,1.33,1.37
12860.15,1.41,1.37
12862.15,1.5,1.31
12864.15,1.52,1.26
12866.15,1.52,1.21
12867.15,1.56,1.27
12869.15,1.53,1.35
12871.15,1.5,1.34
12873.15,1.47,1.27
12875.15,1.42,1.16
12877.15,1.46,1.11
12879.15,1.54,1.08
12881.15,1.61,0.99
12883.15,1.64,0.95
12886.15,1.63,0.96
12888.15,1.62,1.13
12890.15,1.57,1.12
12892.15,1.5,1.0
12894.15,1.48,0.99
12896.15,1.44,1.02
12898.15,1.49,1.16
12900.15,1.56,1.28
12902.15,1.62,1.22
12904.15,1.66,1.21
12906.15,1.65,1.23
12908.15,1.64,1.35
12910.15,1.62,1.33
12911.15,1.6,1.32
12913.15,1.49,1.43
12915.15,1.36,1.45
12917.15,1.4,1.5
12919.15,1.47,1.52
12921.15,1.51,1.43
12923.15,1.59,1.4
12925.15,1.56,1.43
12928.15,1.54,1.34
12930.15,1.53,1.36
12932.15,1.5,1.43
12934.15,1.41,1.4
12936.15,1.34,1.41
12938.15,1.37,1.45
12940.15,1.41,1.47
12942.15,1.48,1.65
12944.15,1.55,1.69
12946.15,1.48,1.57
12948.15,1.53,1.61
12950.15,1.49,1.55
12952.15,1.46,1.62
12953.15,1.4,1.63
12955.15,1.33,1.61
12957.15,1.39,1.66
12959.15,1.4,1.66
12961.15,1.44,1.64
12963.15,1.49,1.56
12965.15,1.44,1.47
12967.15,1.45,1.57
12970.15,1.44,1.67
12972.15,1.39,1.62
12974.15,1.32,1.52
12976.15,1.28,1.44
12978.15,1.32,1.59
12980.15,1.38,1.67
12982.15,1.48,1.69
12984.15,1.55,1.58
12986.15,1.5,1.51
12988.15,1.51,1.5
12990.15,1.51,1.5
12992.15,1.51,1.62
12994.15,1.43,1.47
12995.15,1.36,1.37
12997.15,1.37,1.46
12999.15,1.41,1.51
13001.15,1.48,1.45
13003.15,1.54,1.32
13005.15,1.53,1.18
13007.15,1.55,1.26
13009.15,1.53,1.35
13011.15,1.45,1.36
13014.15,1.38,1.36
13016.15,1.34,1.38
13018.15,1.35,1.51
13020.15,1.38,1.48
13022.15,1.46,1.45
13024.15,1.52,1.27
13026.15,1.5,1.31
13028.15,1.54,1.35
13030.15,1.51,1.28
13032.15,1.46,1.29
13034.15,1.43,1.28
13036.15,1.36,1.32
13038.15,1.4,1.4
13039.15,1.43,1.45
13041.15,1.51,1.45
13043.15,1.57,1.48
13045.15,1.58,1.59
13047.15,1.59,1.51
13049.15,1.54,1.71
13051.15,1.52,1.91
13053.15,1.49,1.92
13056.15,1.37,2.11
13058.15,1.36,2.11
13060.15,1.37,2.03
13062.15,1.45,1.99
13064.15,1.47,1.87
13066.15,1.46,1.75
13068.15,1.44,1.84
13070.15,1.44,1.72
13072.15,1.38,1.59
13074.15,1.36,1.66
13076.15,1.32,1.77
13078.15,1.36,1.68
13080.15,1.42,1.51
13081.15,1.44,1.43
13083.15,1.46,1.54
13085.15,1.46,1.54
13087.15,1.46,1.52
13089.15,1.4,1.59
13091.15,1.35,1.62
13093.15,1.33,1.51
13095.15,1.27,1.34
13098.15,1.3,1.46
13100.15,1.38,1.44
13102.15,1.45,1.4
13104.15,1.51,1.52
13106.15,1.51,1.53
13108.15,1.57,1.48
13110.15,1.55,1.14
13112.15,1.49,1.03
13114.15,1.4,1.22
13116.15,1.31,1.2
13118.15,1.28,1.05
13120.15,1.36,0.91
13122.15,1.42,1.32
13123.15,1.45,1.46
13125.15,1.45,1.31
13127.15,1.45,1.22
13129.15,1.43,1.29
13131.15,1.43,1.4
13133.15,1.37,1.23
13135.15,1.34,1.17
13137.15,1.36,1.2
13139.15,1.43,1.3
13142.15,1.47,1.49
13144.15,1.49,1.48
13146.15,1.49,1.29
13148.15,1.5,1.16
13150.15,1.51,0.94
13152.15,1.46,0.75
13154.15,1.42,0.76
13156.15,1.35,1.05
13158.15,1.37,1.11
13160.15,1.44,1.0
13162.15,1.51,1.04
13164.15,1.57,0.98
13166.15,1.54,1.06
13167.15,1.53,1.08
13169.15,1.49,0.87
13171.15,1.46,0.7
13173.15,1.41,0.82
13175.15,1.39,0.81
13177.15,1.42,0.74
13179.15,1.46,0.63
13181.15,1.55,0.74
13184.15,1.54,0.96
13186.15,1.52,0.98
13188.15,1.54,1.14
13190.15,1.46,1.19
13192.15,1.42,1.12
13194.15,1.32,1.06
13196.15,1.24,0.89
13198.15,1.24,0.69
13200.15,1.36,1.01
13202.15,1.45,1.14
13204.15,1.48,0.84
13206.15,1.47,0.85
13208.15,1.5,1.31
13209.15,1.49,1.32
13211.15,1.44,1.2
13213.15,1.34,1.27
13215.15,1.25,1.04
13217.15,1.24,1.14
13219.15,1.24,1.5
13221.15,1.26,1.73
13223.15,1.28,1.73
13226.15,1.26,1.83
13228.15,1.27,1.67
13230.15,1.15,1.4
13232.15,1.07,1.09
13234.15,0.97,0.9
13236.15,0.96,0.83
13238.15,1.06,1.14
13240.15,1.15,1.21
13242.15,1.27,1.01
13244.15,1.36,1.25
13246.15,1.4,1.5
13248.15,1.45,1.47
13250.15,1.45,1.47
13251.15,1.43,1.39
13253.15,1.4,1.56
13255.15,1.42,1.76
13257.15,1.47,1.84
13259.15,1.48,1.64
13261.15,1.48,1.79
13263.15,1.52,1.51
13265.15,1.6,1.43
13267.15,1.64,1.34
13270.15,1.66,1.39
13272.15,1.69,1.25
13274.15,1.61,0.72
13276.15,1.52,0.44
13278.15,1.56,0.68
13280.15,1.59,0.75
13282.15,1.64,0.82
13284.15,1.66,0.55
13286.15,1.67,0.39
13288.15,1.72,0.23
13290.15,1.76,0.27
13292.15,1.72,0.22
13294.15,1.66,0.0
13295.15,1.61,0.0
13297.15,1.58,0.0
13299.15,1.54,0.0
13301.15,1.65,0.0
13303.15,1.71,0.0
13305.15,1.72,0.0
13307.15,1.72,0.0
13309.15,1.7,0.0
13312.15,1.68,0.0
13314.15,1.6,0.0
13316.15,1.53,0.0
13318.15,1.5,0.35
13320.15,1.54,0.65
13322.15,1.59,0.48
13324.15,1.62,0.35
13326.15,1.61,0.66
13328.15,1.57,0.86
13330.15,1.55,1.16
13332.15,1.52,0.92
13334.15,1.46,0.82
13336.15,1.43,0.75
13337.15,1.4,0.88
13339.15,1.45,0.92
13341.15,1.55,1.01
13343.15,1.52,1.17
13345.15,1.47,1.85
13347.15,1.43,2.18
13349.15,1.38,1.95
13351.15,1.33,2.09
13354.15,1.24,2.36
13356.15,1.15,2.5
13358.15,1.15,2.47
13360.15,1.27,2.52
13362.15,1.36,2.66
13364.15,1.39,2.49
13366.15,1.38,2.63
13368.15,1.37,2.75
13370.15,1.37,2.63
13372.15,1.35,2.47
13374.15,1.26,2.21
13376.15,1.25,2.03
13378.15,1.26,2.01
13379.15,1.31,2.09
13381.15,1.42,1.63
13383.15,1.44,1.1
13385.15,1.46,1.15
