time,ch1,ch2
1.0,1.52,1.06
3.0,1.45,1.11
5.0,1.37,0.95
7.0,1.41,0.95
9.0,1.5,0.65
11.0,1.54,0.68
13.0,1.59,0.36
15.0,1.61,0.25
17.0,1.68,0.36
19.0,1.61,0.49
21.0,1.57,0.65
23.0,1.46,0.82
25.0,1.33,0.97
27.0,1.34,1.12
29.0,1.35,1.03
31.0,1.46,1.0
33.0,1.55,0.83
35.0,1.58,0.85
37.0,1.59,1.25
39.0,1.58,1.28
41.0,1.49,1.24
44.0,1.46,1.39
46.0,1.38,1.47
48.0,1.37,1.58
49.0,1.4,1.54
51.0,1.45,1.37
53.0,1.53,1.18
55.0,1.58,1.21
57.0,1.51,1.28
59.0,1.52,1.82
61.0,1.48,1.78
63.0,1.41,1.74
65.0,1.29,1.75
67.0,1.25,1.8
69.0,1.3,1.78
71.0,1.39,1.75
73.0,1.44,1.51
75.0,1.49,1.55
77.0,1.5,1.73
79.0,1.47,2.1
81.0,1.46,2.16
83.0,1.37,2.12
86.0,1.25,2.12
88.0,1.27,2.12
90.0,1.36,2.01
92.0,1.4,1.67
94.0,1.56,1.44
95.0,1.62,1.46
97.0,1.59,1.54
99.0,1.55,1.63
101.0,1.5,1.73
103.0,1.41,1.72
105.0,1.31,1.69
107.0,1.3,1.7
109.0,1.34,1.68
111.0,1.39,1.75
113.0,1.41,1.56
115.0,1.46,1.56
117.0,1.47,1.67
119.0,1.44,1.79
121.0,1.42,1.82
123.0,1.34,2.04
125.0,1.26,2.18
128.0,1.23,1.99
130.0,1.29,1.75
132.0,1.36,1.84
134.0,1.45,2.0
136.0,1.51,2.15
138.0,1.51,2.32
139.0,1.49,2.44
141.0,1.47,2.62
143.0,1.36,2.61
145.0,1.26,2.54
147.0,1.22,2.42
149.0,1.29,2.18
151.0,1.42,1.94
153.0,1.52,1.66
155.0,1.56,1.34
157.0,1.56,1.28
159.0,1.48,1.37
161.0,1.43,1.39
163.0,1.33,1.48
165.0,1.28,1.6
167.0,1.25,1.71
169.0,1.36,1.64
172.0,1.43,1.47
174.0,1.41,1.15
176.0,1.49,1.09
178.0,1.53,1.13
180.0,1.52,1.24
181.0,1.52,1.36
183.0,1.48,1.4
185.0,1.42,1.42
187.0,1.44,1.74
189.0,1.51,1.67
191.0,1.63,1.58
193.0,1.67,1.6
195.0,1.72,1.7
197.0,1.75,1.85
199.0,1.74,2.03
201.0,1.67,2.04
203.0,1.57,2.03
205.0,1.47,2.06
207.0,1.48,1.99
209.0,1.58,1.75
211.0,1.61,1.55
214.0,1.67,1.36
216.0,1.66,1.45
218.0,1.63,1.94
220.0,1.55,1.96
222.0,1.53,1.76
224.0,1.39,1.58
225.0,1.35,1.53
227.0,1.33,2.03
229.0,1.36,1.54
231.0,1.4,1.09
233.0,1.5,0.86
235.0,1.49,0.79
237.0,1.49,0.86
239.0,1.5,0.93
241.0,1.47,1.02
243.0,1.36,1.15
245.0,1.32,1.25
247.0,1.33,1.25
249.0,1.38,1.15
251.0,1.47,1.04
253.0,1.53,0.88
256.0,1.54,0.91
258.0,1.56,1.22
260.0,1.47,1.39
262.0,1.5,1.55
264.0,1.38,1.37
266.0,1.32,1.35
267.0,1.35,1.36
269.0,1.37,1.34
271.0,1.46,1.35
273.0,1.49,1.56
275.0,1.5,1.74
277.0,1.45,1.8
279.0,1.39,1.77
281.0,1.42,1.56
283.0,1.35,1.36
285.0,1.26,1.27
287.0,1.23,1.34
289.0,1.27,1.2
291.0,1.34,1.44
293.0,1.41,1.14
295.0,1.49,1.17
297.0,1.4,1.22
300.0,1.39,1.37
302.0,1.3,1.45
304.0,1.22,1.52
306.0,1.17,1.62
308.0,1.17,1.69
309.0,1.23,1.6
311.0,1.29,1.39
313.0,1.38,1.18
315.0,1.41,1.18
317.0,1.4,1.25
319.0,1.45,1.39
321.0,1.38,1.46
323.0,1.27,1.51
325.0,1.24,2.07
327.0,1.27,2.01
329.0,1.34,1.7
331.0,1.45,1.5
333.0,1.51,1.28
335.0,1.61,1.38
337.0,1.6,1.51
339.0,1.54,1.6
342.0,1.51,1.67
344.0,1.38,1.69
346.0,1.32,1.72
348.0,1.35,1.77
350.0,1.35,1.6
352.0,1.44,1.4
353.0,1.51,1.22
355.0,1.56,1.44
357.0,1.6,1.64
359.0,1.52,1.73
361.0,1.44,1.81
363.0,1.33,1.81
365.0,1.28,1.84
367.0,1.29,1.85
369.0,1.37,1.67
371.0,1.48,1.69
373.0,1.55,1.78
375.0,1.59,2.41
377.0,1.62,2.33
379.0,1.61,2.25
381.0,1.51,2.18
384.0,1.43,2.22
386.0,1.36,2.3
388.0,1.35,2.26
390.0,1.42,2.15
392.0,1.47,1.98
394.0,1.52,1.71
395.0,1.54,1.73
397.0,1.61,1.8
399.0,1.54,1.93
401.0,1.49,2.09
403.0,1.35,2.09
405.0,1.29,2.09
407.0,1.29,2.09
409.0,1.35,1.96
411.0,1.4,1.71
413.0,1.49,1.5
415.0,1.54,1.5
417.0,1.58,1.58
419.0,1.62,1.77
421.0,1.6,2.0
423.0,1.48,1.97
425.0,1.47,2.02
428.0,1.43,1.99
430.0,1.45,1.78
432.0,1.55,1.5
434.0,1.63,1.27
436.0,1.68,1.26
437.0,1.7,1.28
439.0,1.55,1.25
441.0,1.53,1.41
443.0,1.42,1.58
445.0,1.37,2.22
447.0,1.44,2.15
449.0,1.49,1.88
451.0,1.59,1.64
453.0,1.64,1.36
455.0,1.69,1.39
457.0,1.67,1.43
459.0,1.63,1.44
461.0,1.54,1.39
463.0,1.37,1.42
465.0,1.31,1.49
467.0,1.33,1.32
470.0,1.35,1.1
472.0,1.43,0.97
474.0,1.51,0.83
476.0,1.55,0.93
478.0,1.58,1.15
480.0,1.45,1.18
481.0,1.44,1.28
483.0,1.38,1.35
485.0,1.32,1.43
487.0,1.31,1.85
489.0,1.35,2.05
491.0,1.41,1.82
493.0,1.47,2.02
495.0,1.49,2.14
497.0,1.44,2.13
499.0,1.49,1.92
501.0,1.49,1.74
503.0,1.36,1.58
505.0,1.34,1.58
507.0,1.32,1.5
509.0,1.42,1.29
512.0,1.5,1.09
514.0,1.55,0.91
516.0,1.65,0.89
518.0,1.66,1.37
520.0,1.58,1.2
522.0,1.58,1.11
523.0,1.44,1.09
525.0,1.41,1.25
527.0,1.44,1.33
529.0,1.5,1.21
531.0,1.54,0.97
533.0,1.63,0.86
535.0,1.65,0.96
537.0,1.66,1.04
539.0,1.67,1.19
541.0,1.6,1.3
543.0,1.46,1.41
545.0,1.42,1.53
547.0,1.41,1.58
549.0,1.45,1.51
551.0,1.49,1.38
553.0,1.53,1.15
556.0,1.59,1.23
558.0,1.61,1.42
560.0,1.58,1.5
562.0,1.57,2.16
564.0,1.46,2.31
565.0,1.43,2.12
567.0,1.42,1.96
569.0,1.49,1.75
571.0,1.52,1.49
573.0,1.62,1.27
575.0,1.69,1.29
577.0,1.66,1.33
579.0,1.6,1.33
581.0,1.5,1.3
583.0,1.4,1.33
585.0,1.39,1.25
587.0,1.4,1.25
589.0,1.5,1.25
591.0,1.59,1.44
593.0,1.59,1.09
595.0,1.63,1.28
598.0,1.63,1.43
600.0,1.55,1.46
602.0,1.49,1.27
604.0,1.39,1.17
606.0,1.38,1.14
608.0,1.38,1.09
609.0,1.45,1.01
611.0,1.51,0.86
613.0,1.52,0.76
615.0,1.57,0.95
617.0,1.53,1.11
619.0,1.52,1.24
621.0,1.4,1.28
623.0,1.3,1.35
625.0,1.29,1.45
627.0,1.28,1.45
629.0,1.35,1.31
631.0,1.47,1.22
633.0,1.56,1.06
635.0,1.54,1.11
637.0,1.59,1.3
640.0,1.52,1.38
642.0,1.45,1.41
644.0,1.35,1.44
646.0,1.37,1.58
648.0,1.34,2.04
650.0,1.38,1.56
651.0,1.46,1.24
653.0,1.47,1.08
655.0,1.51,1.18
657.0,1.54,1.32
659.0,1.53,1.5
661.0,1.41,1.52
663.0,1.29,1.56
665.0,1.33,1.78
667.0,1.3,1.71
669.0,1.34,1.52
671.0,1.39,1.4
673.0,1.43,1.25
675.0,1.46,1.35
677.0,1.52,1.4
679.0,1.46,1.35
681.0,1.41,1.37
684.0,1.28,1.42
686.0,1.28,1.71
688.0,1.27,1.67
690.0,1.33,1.55
692.0,1.44,1.33
693.0,1.51,1.31
695.0,1.54,1.48
697.0,1.6,1.71
699.0,1.51,1.67
701.0,1.48,1.62
703.0,1.35,1.69
705.0,1.37,1.88
707.0,1.39,1.97
709.0,1.47,2.2
711.0,1.53,1.77
713.0,1.57,1.49
715.0,1.63,1.52
717.0,1.63,1.64
719.0,1.54,1.7
721.0,1.53,1.75
723.0,1.36,1.64
726.0,1.35,1.67
728.0,1.35,1.8
730.0,1.39,1.8
732.0,1.47,1.68
734.0,1.49,1.45
736.0,1.51,1.48
737.0,1.51,1.59
739.0,1.44,1.67
741.0,1.39,1.79
743.0,1.3,1.87
745.0,1.28,1.91
747.0,1.24,1.88
749.0,1.29,1.72
751.0,1.32,1.54
753.0,1.39,1.41
755.0,1.51,1.46
757.0,1.53,2.23
759.0,1.46,2.54
761.0,1.44,2.1
763.0,1.31,1.88
765.0,1.31,1.87
768.0,1.31,1.81
770.0,1.37,1.67
772.0,1.45,1.49
774.0,1.48,1.24
776.0,1.59,1.2
778.0,1.51,1.05
779.0,1.48,1.05
781.0,1.49,1.48
783.0,1.33,1.34
785.0,1.38,1.31
787.0,1.4,1.26
789.0,1.44,1.14
791.0,1.52,1.17
793.0,1.62,1.24
795.0,1.64,1.4
797.0,1.6,1.55
799.0,1.54,1.66
801.0,1.46,1.6
803.0,1.35,1.64
805.0,1.36,1.68
807.0,1.35,1.45
809.0,1.38,1.25
812.0,1.45,1.04
814.0,1.48,0.83
816.0,1.54,0.88
818.0,1.52,0.95
820.0,1.46,1.12
821.0,1.39,1.33
823.0,1.3,1.39
825.0,1.29,1.28
827.0,1.25,1.59
829.0,1.34,1.35
831.0,1.41,1.0
833.0,1.48,0.79
835.0,1.55,0.85
837.0,1.53,0.95
839.0,1.51,1.07
841.0,1.47,1.2
843.0,1.36,1.26
845.0,1.34,1.42
847.0,1.33,1.37
849.0,1.36,1.22
851.0,1.52,1.12
854.0,1.55,1.02
856.0,1.56,1.21
858.0,1.55,2.11
860.0,1.46,1.88
862.0,1.38,1.57
864.0,1.31,1.46
865.0,1.27,1.47
867.0,1.24,1.4
869.0,1.31,1.26
871.0,1.4,1.12
873.0,1.44,1.12
875.0,1.49,1.52
877.0,1.47,1.75
879.0,1.39,1.81
881.0,1.38,1.87
883.0,1.25,1.86
885.0,1.26,2.21
887.0,1.22,2.08
889.0,1.25,1.81
891.0,1.35,1.58
893.0,1.38,1.43
896.0,1.47,1.7
898.0,1.51,1.87
900.0,1.48,1.93
902.0,1.45,1.91
904.0,1.37,2.0
906.0,1.42,2.17
907.0,1.42,1.82
909.0,1.48,1.49
911.0,1.54,1.16
913.0,1.57,1.03
915.0,1.62,1.15
917.0,1.52,1.25
919.0,1.42,1.24
921.0,1.41,1.32
923.0,1.27,1.31
925.0,1.27,1.41
927.0,1.28,1.41
929.0,1.33,1.74
931.0,1.39,1.28
933.0,1.42,1.0
935.0,1.46,1.07
937.0,1.42,1.16
940.0,1.4,1.15
942.0,1.37,1.15
944.0,1.27,1.1
946.0,1.25,1.15
948.0,1.31,1.14
949.0,1.37,1.02
951.0,1.46,0.88
953.0,1.51,0.78
955.0,1.54,1.0
957.0,1.52,1.19
959.0,1.53,1.38
961.0,1.45,1.57
963.0,1.33,1.75
965.0,1.32,2.01
967.0,1.35,2.05
969.0,1.43,2.44
971.0,1.48,1.95
973.0,1.49,1.57
975.0,1.54,1.5
977.0,1.55,1.52
979.0,1.51,1.47
982.0,1.51,1.49
984.0,1.38,1.43
986.0,1.43,1.53
988.0,1.46,1.44
990.0,1.53,1.3
992.0,1.65,1.44
993.0,1.68,1.52
995.0,1.75,1.74
997.0,1.71,1.74
999.0,1.67,1.69
1001.0,1.59,1.58
1003.0,1.42,1.45
1005.0,1.41,1.4
1007.0,1.37,1.31
1009.0,1.45,1.25
1011.0,1.55,1.08
1013.0,1.57,0.86
1015.0,1.62,0.92
1017.0,1.6,1.01
1019.0,1.59,1.14
1021.0,1.5,1.24
1024.0,1.37,1.25
1026.0,1.39,1.35
1028.0,1.41,1.33
1030.0,1.5,1.22
1032.0,1.61,1.03
1034.0,1.67,0.89
1035.0,1.73,1.02
1037.0,1.7,1.13
1039.0,1.66,1.4
1041.0,1.6,1.42
1043.0,1.46,1.52
1045.0,1.47,1.68
1047.0,1.46,1.57
1049.0,1.55,1.47
1051.0,1.62,1.34
1053.0,1.63,1.21
1055.0,1.7,1.35
1057.0,1.69,1.64
1059.0,1.66,2.05
1061.0,1.58,2.05
1063.0,1.43,1.97
1065.0,1.44,2.02
1068.0,1.36,1.8
1070.0,1.47,1.74
1072.0,1.56,1.42
1074.0,1.62,1.27
1076.0,1.64,1.29
1078.0,1.65,1.36
1079.0,1.59,1.45
1081.0,1.53,1.5
1083.0,1.41,1.87
1085.0,1.45,1.82
1087.0,1.42,1.66
1089.0,1.5,1.47
1091.0,1.61,1.21
1093.0,1.6,1.09
1095.0,1.63,1.17
1097.0,1.6,1.36
1099.0,1.57,1.44
1101.0,1.55,1.55
1103.0,1.42,1.57
1105.0,1.42,1.66
1107.0,1.46,1.59
1110.0,1.47,1.34
1112.0,1.52,1.16
1114.0,1.56,1.09
1116.0,1.63,1.25
1118.0,1.62,1.43
1120.0,1.55,1.53
1121.0,1.47,1.55
1123.0,1.35,1.61
1125.0,1.36,1.79
1127.0,1.38,1.72
1129.0,1.48,1.59
1131.0,1.5,1.44
1133.0,1.5,1.28
1135.0,1.55,1.41
1137.0,1.58,1.61
1139.0,1.49,1.71
1141.0,1.51,1.82
1143.0,1.43,1.86
1145.0,1.44,1.96
1147.0,1.51,1.93
1149.0,1.6,1.85
1152.0,1.68,1.59
1154.0,1.72,1.43
1156.0,1.84,1.55
1158.0,1.77,1.61
1160.0,1.71,1.66
1162.0,1.53,1.69
1164.0,1.29,1.63
1165.0,1.26,1.8
1167.0,1.25,1.97
1169.0,1.32,2.15
1171.0,1.42,2.05
1173.0,1.43,2.31
1175.0,1.41,2.12
1177.0,1.44,2.05
1179.0,1.36,2.08
1181.0,1.37,2.42
1183.0,1.21,2.55
1185.0,1.23,2.69
1187.0,1.29,2.51
1189.0,1.34,2.26
1191.0,1.45,1.92
1193.0,1.48,1.72
1196.0,1.54,1.82
1198.0,1.48,1.87
1200.0,1.42,1.9
1202.0,1.36,1.99
1204.0,1.19,1.9
1206.0,1.22,1.94
1207.0,1.25,1.91
1209.0,1.34,1.84
1211.0,1.48,1.66
1213.0,1.47,1.61
1215.0,1.53,1.58
1217.0,1.54,1.62
1219.0,1.52,1.73
1221.0,1.42,1.99
1223.0,1.26,1.72
1225.0,1.26,1.65
1227.0,1.28,1.53
1229.0,1.35,1.39
1231.0,1.45,1.16
1233.0,1.45,1.01
1235.0,1.5,1.15
1238.0,1.48,1.21
1240.0,1.43,1.23
1242.0,1.42,1.35
1244.0,1.27,1.36
1246.0,1.29,1.48
1248.0,1.29,1.59
1250.0,1.34,1.36
1251.0,1.49,1.17
1253.0,1.47,1.01
1255.0,1.51,1.1
1257.0,1.53,1.3
1259.0,1.47,1.41
1261.0,1.37,1.44
1263.0,1.23,1.49
1265.0,1.28,1.61
1267.0,1.31,1.56
1269.0,1.39,1.5
1271.0,1.47,1.41
1273.0,1.42,1.25
1275.0,1.48,1.51
1277.0,1.48,1.74
1280.0,1.5,1.74
1282.0,1.4,1.73
1284.0,1.29,1.79
1286.0,1.26,1.93
1288.0,1.33,1.84
1290.0,1.37,1.59
1292.0,1.5,1.33
1293.0,1.5,1.16
1295.0,1.51,1.24
1297.0,1.52,1.38
1299.0,1.42,1.43
1301.0,1.32,1.5
1303.0,1.23,1.58
1305.0,1.28,1.82
1307.0,1.21,1.63
1309.0,1.25,1.46
1311.0,1.38,1.27
1313.0,1.4,1.18
1315.0,1.5,1.35
1317.0,1.46,1.45
1319.0,1.43,1.56
1321.0,1.36,1.64
1324.0,1.24,1.62
1326.0,1.29,1.71
1328.0,1.27,1.65
1330.0,1.32,1.47
1332.0,1.4,1.36
1334.0,1.42,1.38
1336.0,1.42,1.66
1337.0,1.47,1.84
1339.0,1.41,1.81
1341.0,1.37,1.79
1343.0,1.24,1.74
1345.0,1.21,1.7
1347.0,1.29,1.55
1349.0,1.39,1.37
1351.0,1.45,1.15
1353.0,1.45,1.08
1355.0,1.52,1.24
1357.0,1.57,1.35
1359.0,1.5,1.32
1361.0,1.45,1.33
1363.0,1.36,1.31
1366.0,1.42,1.4
1368.0,1.44,1.35
1370.0,1.5,1.21
1372.0,1.55,1.01
1374.0,1.58,0.96
1376.0,1.58,1.18
1378.0,1.6,1.27
1379.0,1.53,1.31
1381.0,1.51,1.38
1383.0,1.35,1.4
1385.0,1.34,1.52
1387.0,1.3,1.47
1389.0,1.36,2.04
1391.0,1.46,2.09
1393.0,1.44,1.74
1395.0,1.49,1.69
1397.0,1.48,1.72
1399.0,1.42,1.69
1401.0,1.4,1.74
1403.0,1.28,1.7
1405.0,1.31,1.77
1408.0,1.33,1.57
1410.0,1.43,1.36
1412.0,1.52,1.11
1414.0,1.56,1.09
1416.0,1.63,1.5
1418.0,1.62,1.68
1420.0,1.58,1.57
1422.0,1.5,1.55
1423.0,1.35,1.53
1425.0,1.35,1.58
1427.0,1.39,1.5
1429.0,1.43,1.33
1431.0,1.46,1.14
1433.0,1.5,1.11
1435.0,1.59,1.33
1437.0,1.57,1.48
1439.0,1.51,1.49
1441.0,1.43,1.56
1443.0,1.33,1.64
1445.0,1.31,1.75
1447.0,1.3,1.66
1449.0,1.4,1.63
1452.0,1.42,1.36
1454.0,1.45,1.28
1456.0,1.52,1.36
1458.0,1.52,1.41
1460.0,1.48,1.45
1462.0,1.43,1.53
1464.0,1.32,1.45
1465.0,1.38,1.63
1467.0,1.4,1.57
1469.0,1.43,1.45
1471.0,1.53,1.24
1473.0,1.56,1.13
1475.0,1.64,1.2
1477.0,1.59,1.29
1479.0,1.52,1.42
1481.0,1.45,1.49
1483.0,1.34,1.52
1485.0,1.37,1.61
1487.0,1.41,1.6
1489.0,1.49,1.46
1491.0,1.62,1.47
1494.0,1.62,1.62
1496.0,1.64,1.75
1498.0,1.61,1.67
1500.0,1.61,1.63
1502.0,1.51,1.63
1504.0,1.38,1.67
1506.0,1.37,1.65
1508.0,1.39,1.5
1509.0,1.48,1.37
1511.0,1.58,1.18
1513.0,1.63,1.12
1515.0,1.67,1.26
1517.0,1.65,1.39
1519.0,1.62,1.41
1521.0,1.47,1.38
1523.0,1.32,1.39
1525.0,1.32,1.45
1527.0,1.3,1.25
1529.0,1.4,1.1
1531.0,1.5,0.96
1533.0,1.56,1.0
1536.0,1.63,1.15
1538.0,1.64,1.24
1540.0,1.57,1.27
1542.0,1.54,1.32
1544.0,1.46,1.32
1546.0,1.47,1.43
1548.0,1.45,1.35
1550.0,1.5,1.45
1552.0,1.62,1.35
1553.0,1.64,1.09
1555.0,1.66,1.09
1557.0,1.62,1.3
1559.0,1.52,1.37
1561.0,1.41,1.42
1563.0,1.31,1.46
1565.0,1.35,1.61
1567.0,1.38,1.56
1569.0,1.47,1.45
1571.0,1.55,1.25
1573.0,1.54,1.22
1575.0,1.55,1.34
1577.0,1.55,1.47
1580.0,1.5,1.53
1582.0,1.44,1.61
1584.0,1.29,1.59
1586.0,1.3,1.62
1588.0,1.26,1.46
1590.0,1.35,1.44
1592.0,1.41,1.21
1594.0,1.44,1.22
1595.0,1.53,1.36
1597.0,1.53,1.45
1599.0,1.47,1.5
1601.0,1.35,1.47
1603.0,1.24,1.55
1605.0,1.27,1.74
1607.0,1.3,1.67
1609.0,1.37,1.6
1611.0,1.41,1.57
1613.0,1.45,1.72
1615.0,1.52,2.03
1617.0,1.55,2.23
1619.0,1.48,2.14
1622.0,1.39,2.1
1624.0,1.3,2.06
1626.0,1.35,2.04
1628.0,1.36,1.83
1630.0,1.44,1.63
1632.0,1.53,1.32
1634.0,1.53,1.19
1636.0,1.52,1.32
1638.0,1.46,1.42
1639.0,1.41,1.5
1641.0,1.37,1.6
1643.0,1.25,1.61
1645.0,1.23,1.71
1647.0,1.23,1.56
1649.0,1.3,1.53
1651.0,1.39,1.31
1653.0,1.4,1.26
1655.0,1.49,1.37
1657.0,1.48,1.49
1659.0,1.4,1.68
1661.0,1.3,2.0
1664.0,1.24,2.15
1666.0,1.26,2.16
1668.0,1.3,1.85
1670.0,1.38,1.62
1672.0,1.46,1.6
1674.0,1.47,1.7
1676.0,1.53,1.95
1678.0,1.5,2.06
1680.0,1.47,2.2
1681.0,1.37,2.23
1683.0,1.26,2.24
1685.0,1.26,2.25
1687.0,1.33,2.12
1689.0,1.42,1.9
1691.0,1.53,1.67
1693.0,1.56,1.65
1695.0,1.59,1.76
1697.0,1.57,1.92
1699.0,1.54,1.95
1701.0,1.45,1.92
1703.0,1.36,1.88
1705.0,1.36,1.95
1708.0,1.4,1.86
1710.0,1.48,1.77
1712.0,1.54,1.56
1714.0,1.56,1.61
1716.0,1.57,1.69
1718.0,1.54,1.7
1720.0,1.48,1.73
1722.0,1.38,1.81
1724.0,1.31,1.85
1725.0,1.3,1.86
1727.0,1.33,1.69
1729.0,1.37,1.52
1731.0,1.49,1.37
1733.0,1.51,1.31
1735.0,1.52,1.57
1737.0,1.48,1.7
1739.0,1.49,1.78
1741.0,1.44,1.74
1743.0,1.37,1.75
1745.0,1.36,1.78
1747.0,1.38,1.56
1750.0,1.46,1.35
1752.0,1.58,1.15
1754.0,1.57,1.13
1756.0,1.6,1.19
1758.0,1.53,1.17
1760.0,1.46,1.15
1762.0,1.4,1.24
1764.0,1.36,1.32
1766.0,1.41,1.47
1767.0,1.5,1.45
1769.0,1.48,1.22
1771.0,1.5,1.0
1773.0,1.57,1.0
1775.0,1.62,1.2
1777.0,1.54,1.37
1779.0,1.46,1.28
1781.0,1.41,1.23
1783.0,1.39,1.3
1785.0,1.34,1.21
1787.0,1.34,1.03
1789.0,1.4,0.86
1792.0,1.49,0.65
1794.0,1.5,0.6
1796.0,1.52,0.71
1798.0,1.48,0.85
1800.0,1.49,0.94
1802.0,1.47,1.01
1804.0,1.35,1.0
1806.0,1.33,1.06
1808.0,1.41,1.0
1810.0,1.47,0.9
1811.0,1.55,0.72
1813.0,1.57,0.75
1815.0,1.54,0.9
1817.0,1.47,1.01
1819.0,1.41,1.15
1821.0,1.37,1.29
1823.0,1.37,1.42
1825.0,1.4,1.51
1827.0,1.46,1.45
1829.0,1.5,1.4
1831.0,1.52,1.25
1833.0,1.54,1.21
1836.0,1.57,1.32
1838.0,1.53,1.37
1840.0,1.45,1.43
1842.0,1.42,1.6
1844.0,1.36,1.65
1846.0,1.35,1.72
1848.0,1.39,1.62
1850.0,1.44,1.44
1852.0,1.52,1.25
1854.0,1.53,1.18
1855.0,1.56,1.3
1857.0,1.56,1.44
1859.0,1.54,1.49
1861.0,1.44,1.49
1863.0,1.35,1.47
1865.0,1.29,1.49
1867.0,1.32,1.44
1869.0,1.37,1.33
1871.0,1.48,1.19
1873.0,1.56,1.24
1875.0,1.55,1.3
1878.0,1.54,1.45
1880.0,1.49,1.55
1882.0,1.35,1.55
1884.0,1.29,1.65
1886.0,1.35,2.11
1888.0,1.32,1.93
1890.0,1.35,1.65
1892.0,1.44,1.42
1894.0,1.51,1.39
1896.0,1.51,1.44
1897.0,1.53,1.54
1899.0,1.47,1.65
1901.0,1.32,1.67
1903.0,1.25,1.57
1905.0,1.33,1.63
1907.0,1.45,1.51
1909.0,1.4,1.18
1911.0,1.42,0.92
1913.0,1.45,0.95
1915.0,1.45,0.95
1917.0,1.5,1.12
1920.0,1.42,1.19
1922.0,1.35,1.31
1924.0,1.3,1.58
1926.0,1.33,1.84
1928.0,1.39,1.78
1930.0,1.46,1.67
1932.0,1.54,1.55
1934.0,1.55,1.58
1936.0,1.59,1.71
1938.0,1.53,1.85
1940.0,1.5,1.95
1941.0,1.4,1.93
1943.0,1.34,1.9
1945.0,1.33,1.88
1947.0,1.42,1.75
1949.0,1.48,1.57
1951.0,1.48,1.36
1953.0,1.55,1.39
1955.0,1.59,1.52
1957.0,1.58,1.62
1959.0,1.53,1.69
1961.0,1.38,1.81
1964.0,1.31,1.95
1966.0,1.27,2.08
1968.0,1.34,2.09
1970.0,1.42,1.81
1972.0,1.49,1.58
1974.0,1.54,1.53
1976.0,1.56,1.55
1978.0,1.57,1.51
1980.0,1.48,1.44
1982.0,1.36,1.43
1983.0,1.34,1.38
1985.0,1.27,1.23
1987.0,1.29,1.03
1989.0,1.39,0.86
1991.0,1.48,0.68
1993.0,1.54,0.78
1995.0,1.53,0.9
1997.0,1.47,0.97
1999.0,1.47,1.02
2001.0,1.37,0.93
2003.0,1.35,0.95
2006.0,1.34,0.94
2008.0,1.41,0.86
2010.0,1.53,0.78
2012.0,1.58,0.62
2014.0,1.61,0.71
2016.0,1.6,0.87
2018.0,1.56,0.95
2020.0,1.47,1.01
2022.0,1.41,1.06
2024.0,1.35,1.08
2026.0,1.33,1.08
2027.0,1.38,0.98
2029.0,1.5,0.82
2031.0,1.52,0.6
2033.0,1.5,0.8
2035.0,1.48,1.12
2037.0,1.45,1.27
2039.0,1.45,1.43
2041.0,1.36,1.53
2043.0,1.32,1.62
2045.0,1.32,1.66
2048.0,1.35,1.53
2050.0,1.42,1.49
2052.0,1.47,1.33
2054.0,1.49,1.32
2056.0,1.55,1.43
2058.0,1.54,1.49
2060.0,1.46,1.31
2062.0,1.38,1.22
2064.0,1.36,1.31
2066.0,1.31,1.26
2068.0,1.4,1.22
2070.0,1.48,1.14
2071.0,1.5,0.97
2073.0,1.55,1.01
2075.0,1.64,1.17
2077.0,1.62,1.3
2079.0,1.54,1.38
2081.0,1.38,1.45
2083.0,1.33,1.55
2085.0,1.35,1.55
2087.0,1.47,1.54
2089.0,1.54,1.45
2092.0,1.56,1.32
2094.0,1.62,1.36
2096.0,1.7,1.54
2098.0,1.69,1.65
2100.0,1.6,1.7
2102.0,1.45,1.76
2104.0,1.38,1.81
2106.0,1.36,1.79
2108.0,1.42,1.69
2110.0,1.46,1.54
2112.0,1.52,1.36
2113.0,1.53,1.37
2115.0,1.55,1.54
2117.0,1.49,1.58
2119.0,1.51,1.66
2121.0,1.4,1.66
2123.0,1.38,1.7
2125.0,1.42,1.74
2127.0,1.53,1.6
2129.0,1.57,1.5
2131.0,1.59,1.35
2134.0,1.56,1.37
2136.0,1.57,1.5
2138.0,1.54,1.62
2140.0,1.44,1.65
2142.0,1.31,1.69
2144.0,1.25,1.76
2146.0,1.31,1.78
2148.0,1.38,1.71
2150.0,1.46,1.56
2152.0,1.49,1.36
2154.0,1.56,1.44
2155.0,1.54,1.45
2157.0,1.48,1.51
2159.0,1.41,1.75
2161.0,1.33,1.74
2163.0,1.32,1.75
2165.0,1.34,1.7
2167.0,1.4,1.56
2169.0,1.46,1.37
2171.0,1.53,1.22
2173.0,1.53,1.26
2176.0,1.52,1.47
2178.0,1.5,1.52
2180.0,1.46,1.63
2182.0,1.32,1.6
2184.0,1.26,1.71
2186.0,1.31,1.74
2188.0,1.34,1.62
2190.0,1.42,1.84
2192.0,1.48,1.65
2194.0,1.6,1.63
2196.0,1.55,1.55
2198.0,1.54,1.54
2199.0,1.49,1.57
2201.0,1.36,1.57
2203.0,1.34,1.57
2205.0,1.44,1.67
2207.0,1.48,1.37
2209.0,1.55,1.15
2211.0,1.57,1.0
2213.0,1.61,1.09
2215.0,1.62,1.18
2217.0,1.59,1.27
2220.0,1.54,1.33
2222.0,1.39,1.36
2224.0,1.35,1.41
2226.0,1.4,1.46
2228.0,1.45,1.4
2230.0,1.5,1.29
2232.0,1.55,1.14
2234.0,1.6,1.19
2236.0,1.61,1.33
2238.0,1.55,1.39
2240.0,1.47,1.64
2241.0,1.38,1.7
2243.0,1.35,1.65
2245.0,1.29,1.6
2247.0,1.34,1.43
2249.0,1.43,1.25
2251.0,1.49,1.11
2253.0,1.55,1.23
2255.0,1.57,1.38
2257.0,1.44,1.54
2259.0,1.36,1.64
2262.0,1.23,1.67
2264.0,1.23,2.02
2266.0,1.23,2.09
2268.0,1.27,1.87
2270.0,1.37,1.51
2272.0,1.41,1.22
2274.0,1.38,1.19
2276.0,1.43,1.24
2278.0,1.4,1.29
2280.0,1.39,1.34
2282.0,1.26,1.38
2284.0,1.24,1.43
2285.0,1.22,1.38
2287.0,1.33,1.35
2289.0,1.38,1.2
2291.0,1.43,1.04
2293.0,1.46,1.11
2295.0,1.46,1.21
2297.0,1.46,1.33
2299.0,1.45,1.48
2301.0,1.33,1.67
2304.0,1.29,1.77
2306.0,1.3,1.8
2308.0,1.34,1.7
2310.0,1.45,1.56
2312.0,1.49,1.34
2314.0,1.59,1.37
2316.0,1.56,1.4
2318.0,1.52,1.45
2320.0,1.53,1.49
2322.0,1.42,1.49
2324.0,1.41,1.55
2326.0,1.36,1.52
2327.0,1.45,1.5
2329.0,1.54,1.4
2331.0,1.56,1.27
2333.0,1.6,1.41
2335.0,1.64,1.58
2337.0,1.56,1.67
2339.0,1.48,1.71
2341.0,1.37,1.72
2343.0,1.35,1.77
2345.0,1.36,1.82
2348.0,1.39,1.76
2350.0,1.48,1.6
2352.0,1.52,1.45
2354.0,1.61,1.52
2356.0,1.57,1.53
2358.0,1.5,1.54
2360.0,1.44,1.63
2362.0,1.35,1.6
2364.0,1.31,1.63
2366.0,1.31,1.6
2368.0,1.38,1.52
2370.0,1.47,1.36
2371.0,1.48,1.13
2373.0,1.53,1.15
2375.0,1.62,1.28
2377.0,1.56,1.35
2379.0,1.53,1.49
2381.0,1.38,1.48
2383.0,1.37,1.52
2385.0,1.44,1.45
2387.0,1.5,1.31
2390.0,1.59,1.23
2392.0,1.62,1.1
2394.0,1.65,1.15
2396.0,1.63,1.25
2398.0,1.62,1.41
2400.0,1.51,1.43
2402.0,1.35,1.43
2404.0,1.33,1.53
2406.0,1.35,1.51
2408.0,1.36,1.35
2410.0,1.44,1.29
2412.0,1.51,1.16
2413.0,1.55,1.24
2415.0,1.55,1.34
2417.0,1.54,1.42
2419.0,1.49,1.51
2421.0,1.39,1.52
2423.0,1.42,1.55
2425.0,1.44,1.51
2427.0,1.45,1.35
2429.0,1.48,1.15
2432.0,1.48,0.99
2434.0,1.52,1.1
2436.0,1.55,1.26
2438.0,1.52,1.32
2440.0,1.53,1.39
2442.0,1.37,1.4
2444.0,1.37,1.5
2446.0,1.29,1.45
2448.0,1.37,1.32
2450.0,1.44,1.15
2452.0,1.44,0.98
2454.0,1.47,1.1
2456.0,1.49,1.22
2457.0,1.47,1.3
2459.0,1.44,1.37
2461.0,1.27,1.33
2463.0,1.28,1.44
2465.0,1.28,1.42
2467.0,1.35,1.29
2469.0,1.48,1.14
2471.0,1.48,1.0
2473.0,1.47,1.08
2476.0,1.53,1.25
2478.0,1.52,1.39
2480.0,1.45,1.41
2482.0,1.27,1.39
2484.0,1.31,1.55
2486.0,1.3,1.55
2488.0,1.34,1.43
2490.0,1.42,1.27
2492.0,1.46,1.43
2494.0,1.52,1.32
2496.0,1.53,1.3
2498.0,1.53,1.42
2500.0,1.45,1.44
2501.0,1.32,1.39
2503.0,1.35,1.48
2505.0,1.33,1.45
2507.0,1.42,1.44
2509.0,1.53,1.86
2511.0,1.55,1.74
2513.0,1.6,1.64
2515.0,1.56,1.52
2518.0,1.52,1.43
2520.0,1.36,1.36
2522.0,1.22,1.36
2524.0,1.24,1.41
2526.0,1.2,1.33
2528.0,1.29,1.18
2530.0,1.41,1.01
2532.0,1.48,0.9
2534.0,1.48,0.99
2536.0,1.51,1.36
2538.0,1.48,1.55
2540.0,1.44,1.58
2542.0,1.32,1.57
2544.0,1.33,1.71
2545.0,1.34,1.67
2547.0,1.4,1.47
2549.0,1.51,1.18
2551.0,1.53,0.98
2553.0,1.62,1.14
2555.0,1.6,1.25
2557.0,1.53,1.24
2560.0,1.47,1.32
2562.0,1.36,1.37
2564.0,1.35,1.48
2566.0,1.36,1.42
2568.0,1.44,1.28
2570.0,1.54,1.14
2572.0,1.57,1.08
2574.0,1.58,1.15
2576.0,1.54,1.24
2578.0,1.55,1.33
2580.0,1.53,1.37
2582.0,1.36,1.36
2584.0,1.34,1.38
2586.0,1.32,1.33
2588.0,1.36,1.25
2589.0,1.5,1.12
2591.0,1.53,1.0
2593.0,1.59,1.22
2595.0,1.6,1.4
2597.0,1.55,1.41
2599.0,1.51,1.45
2601.0,1.35,1.43
2604.0,1.34,1.7
2606.0,1.42,1.84
2608.0,1.5,1.63
2610.0,1.63,1.32
2612.0,1.67,1.27
2614.0,1.69,1.59
2616.0,1.69,1.73
2618.0,1.67,1.77
2620.0,1.61,1.89
2622.0,1.45,1.91
2624.0,1.49,2.06
2626.0,1.57,2.18
2628.0,1.6,2.05
2630.0,1.68,1.81
2631.0,1.73,1.67
2633.0,1.7,1.75
2635.0,1.69,1.97
2637.0,1.59,2.16
2639.0,1.52,2.25
2641.0,1.4,2.34
2643.0,1.38,2.69
2646.0,1.38,2.93
2648.0,1.47,3.17
2650.0,1.62,3.12
2652.0,1.7,3.05
2654.0,1.76,3.13
2656.0,1.74,3.07
2658.0,1.7,3.03
2660.0,1.62,3.05
2662.0,1.44,3.01
2664.0,1.42,3.16
2666.0,1.43,2.97
2668.0,1.53,2.72
2670.0,1.6,2.43
2672.0,1.63,2.28
2674.0,1.62,2.34
2675.0,1.59,2.39
2677.0,1.57,2.57
2679.0,1.53,2.68
2681.0,1.38,2.49
2683.0,1.36,2.51
2685.0,1.33,2.39
2688.0,1.41,1.96
2690.0,1.57,1.49
2692.0,1.63,1.21
2694.0,1.73,1.45
2696.0,1.74,1.69
2698.0,1.71,1.6
2700.0,1.62,1.62
2702.0,1.45,1.44
2704.0,1.43,1.75
2706.0,1.44,1.79
2708.0,1.6,1.56
2710.0,1.65,1.34
2712.0,1.64,1.24
2714.0,1.73,1.22
2716.0,1.74,0.82
2718.0,1.67,0.38
2719.0,1.54,0.09
2721.0,1.35,0.19
2723.0,1.35,0.47
2725.0,1.22,0.22
2727.0,1.24,0.38
2729.0,1.36,0.29
2732.0,1.45,0.0
2734.0,1.55,0.0
2736.0,1.52,0.0
2738.0,1.48,0.0
2740.0,1.46,0.0
2742.0,1.33,0.0
2744.0,1.32,0.0
2746.0,1.37,0.0
2748.0,1.48,0.0
2750.0,1.59,0.0
2752.0,1.58,0.0
2754.0,1.65,0.0
2756.0,1.54,0.0
2758.0,1.41,0.0
2760.0,1.35,0.0
2761.0,1.2,0.0
2763.0,1.22,0.0
2765.0,1.28,0.0
2767.0,1.41,0.0
2769.0,1.48,0.0
2771.0,1.51,0.0
2774.0,1.49,0.0
2776.0,1.52,0.0
2778.0,1.36,0.0
2780.0,1.26,0.0
2782.0,1.08,0.0
2784.0,1.11,0.0
2786.0,1.16,0.0
2788.0,1.28,0.0
2790.0,1.43,0.0
2792.0,1.54,0.0
2794.0,1.62,0.0
2796.0,1.64,0.0
2798.0,1.67,0.0
2800.0,1.59,0.0
2802.0,1.5,0.0
2804.0,1.5,0.0
2805.0,1.53,0.0
2807.0,1.55,0.0
2809.0,1.64,0.0
2811.0,1.57,0.0
2813.0,1.58,0.0
2816.0,1.55,0.0
2818.0,1.46,0.0
2820.0,1.4,0.0
2822.0,1.27,0.0
2824.0,1.26,0.0
2826.0,1.33,0.0
2828.0,1.45,0.0
2830.0,1.56,0.0
2832.0,1.62,0.0
2834.0,1.62,0.0
2836.0,1.63,0.0
2838.0,1.58,0.0
2840.0,1.55,0.0
2842.0,1.45,0.0
2844.0,1.44,0.0
2846.0,1.42,0.0
2847.0,1.47,0.0
2849.0,1.59,0.0
2851.0,1.66,0.0
2853.0,1.73,0.0
2855.0,1.73,0.0
2857.0,1.64,0.0
2860.0,1.58,0.0
2862.0,1.4,0.0
2864.0,1.37,0.0
2866.0,1.3,0.0
2868.0,1.35,0.0
2870.0,1.43,0.0
2872.0,1.43,0.0
2874.0,1.5,0.0
2876.0,1.43,0.0
2878.0,1.37,0.0
2880.0,1.3,0.2
2882.0,1.2,0.35
2884.0,1.19,1.58
2886.0,1.23,1.51
2888.0,1.32,1.13
2890.0,1.44,0.92
2891.0,1.47,0.84
2893.0,1.54,0.95
2895.0,1.51,1.07
2897.0,1.41,1.04
2899.0,1.42,1.16
2902.0,1.33,1.12
2904.0,1.34,1.16
2906.0,1.34,1.19
2908.0,1.43,1.31
2910.0,1.52,1.09
2912.0,1.53,0.99
2914.0,1.55,1.13
2916.0,1.49,1.26
2918.0,1.45,1.21
2920.0,1.34,1.07
2922.0,1.22,0.95
2924.0,1.25,1.18
2926.0,1.29,1.13
2928.0,1.3,0.92
2930.0,1.36,0.8
2932.0,1.38,0.7
2933.0,1.38,0.88
2935.0,1.43,1.6
2937.0,1.39,2.06
2939.0,1.27,1.99
2941.0,1.14,2.05
2944.0,1.18,2.15
2946.0,1.24,1.96
2948.0,1.31,1.73
2950.0,1.39,1.54
2952.0,1.43,1.43
2954.0,1.43,1.59
2956.0,1.43,1.7
2958.0,1.38,1.78
2960.0,1.32,1.86
2962.0,1.23,1.8
2964.0,1.3,1.85
2966.0,1.38,1.59
2968.0,1.44,1.18
2970.0,1.52,0.81
2972.0,1.49,0.5
2974.0,1.52,0.49
2976.0,1.52,0.59
2977.0,1.53,0.82
2979.0,1.45,0.87
2981.0,1.28,0.81
2983.0,1.28,0.93
2985.0,1.27,0.93
2988.0,1.35,0.93
2990.0,1.44,0.99
2992.0,1.43,0.98
2994.0,1.43,0.93
2996.0,1.46,0.92
2998.0,1.42,1.1
3000.0,1.32,1.37
3002.0,1.14,1.57
3004.0,1.13,1.94
3006.0,1.15,1.95
3008.0,1.2,1.94
3010.0,1.24,1.73
3012.0,1.2,1.65
3014.0,1.2,1.91
3016.0,1.19,2.24
3018.0,1.16,2.3
3019.0,1.11,2.42
3021.0,0.97,2.53
3023.0,1.01,2.63
3025.0,1.04,2.62
3027.0,1.17,2.66
3030.0,1.26,2.94
3032.0,1.31,3.24
3034.0,1.37,3.29
3036.0,1.43,3.29
3038.0,1.33,3.27
3040.0,1.28,3.3
3042.0,1.15,3.3
3044.0,1.15,3.3
3046.0,1.17,3.3
3048.0,1.25,3.3
3050.0,1.37,3.3
3052.0,1.42,3.3
3054.0,1.48,3.3
3056.0,1.45,3.3
3058.0,1.45,3.3
3060.0,1.39,3.27
3062.0,1.23,3.07
3063.0,1.22,3.08
3065.0,1.28,2.84
3067.0,1.38,2.54
3069.0,1.51,2.11
3072.0,1.52,1.85
3074.0,1.51,1.79
3076.0,1.49,1.9
3078.0,1.44,1.97
3080.0,1.4,1.98
3082.0,1.28,1.83
3084.0,1.33,1.77
3086.0,1.36,1.82
3088.0,1.42,1.71
3090.0,1.49,1.48
3092.0,1.52,1.63
3094.0,1.58,1.95
3096.0,1.55,1.9
3098.0,1.49,1.83
3100.0,1.38,1.88
3102.0,1.23,2.02
3104.0,1.23,2.08
3106.0,1.28,1.86
3107.0,1.33,1.75
3109.0,1.41,1.63
3111.0,1.43,1.47
3113.0,1.49,1.33
3116.0,1.48,1.21
3118.0,1.46,1.19
3120.0,1.4,1.37
3122.0,1.31,1.62
3124.0,1.36,1.91
3126.0,1.34,1.82
3128.0,1.45,1.75
3130.0,1.49,1.52
3132.0,1.49,1.56
3134.0,1.55,1.72
3136.0,1.49,1.68
3138.0,1.43,1.66
3140.0,1.35,1.8
3142.0,1.25,1.85
3144.0,1.25,1.97
3146.0,1.3,1.99
3148.0,1.36,1.84
3150.0,1.42,1.55
3151.0,1.43,1.4
3153.0,1.45,1.43
3155.0,1.45,1.48
3158.0,1.39,1.63
3160.0,1.34,1.68
3162.0,1.27,1.52
3164.0,1.29,1.33
3166.0,1.31,1.13
3168.0,1.4,1.14
3170.0,1.49,1.09
3172.0,1.55,1.65
3174.0,1.49,2.18
3176.0,1.48,2.26
3178.0,1.45,1.99
3180.0,1.28,1.63
3182.0,1.18,1.52
3184.0,1.21,1.56
3186.0,1.27,1.49
3188.0,1.4,1.45
3190.0,1.51,1.43
3192.0,1.51,1.55
3193.0,1.53,1.66
3195.0,1.56,1.87
3197.0,1.51,1.94
3200.0,1.43,2.0
3202.0,1.33,2.2
3204.0,1.35,2.31
3206.0,1.38,2.15
3208.0,1.49,2.05
3210.0,1.56,1.85
3212.0,1.65,1.93
3214.0,1.69,2.13
3216.0,1.65,2.08
3218.0,1.59,2.1
3220.0,1.49,1.99
3222.0,1.36,1.68
3224.0,1.4,1.55
3226.0,1.47,1.55
3228.0,1.56,1.56
3230.0,1.65,1.29
3232.0,1.68,1.14
3234.0,1.67,1.15
3236.0,1.61,1.27
3237.0,1.54,1.32
3239.0,1.46,1.49
3241.0,1.37,1.67
3244.0,1.33,1.74
3246.0,1.38,1.52
3248.0,1.44,1.36
3250.0,1.55,1.26
3252.0,1.55,1.31
3254.0,1.63,1.5
3256.0,1.56,1.58
3258.0,1.49,1.67
3260.0,1.41,1.65
3262.0,1.35,1.65
3264.0,1.35,1.63
3266.0,1.4,1.54
3268.0,1.45,1.41
3270.0,1.47,1.22
3272.0,1.48,1.22
3274.0,1.49,1.29
3276.0,1.53,1.39
3278.0,1.53,1.45
3279.0,1.5,1.49
3281.0,1.47,1.48
3283.0,1.45,1.48
3286.0,1.5,1.32
3288.0,1.57,1.27
3290.0,1.64,1.11
3292.0,1.67,1.12
3294.0,1.75,1.21
3296.0,1.67,1.21
3298.0,1.62,1.29
3300.0,1.62,1.64
3302.0,1.57,1.71
3304.0,1.6,1.79
3306.0,1.65,1.56
3308.0,1.59,1.25
3310.0,1.52,0.99
3312.0,1.46,0.91
3314.0,1.47,0.93
3316.0,1.43,0.96
3318.0,1.39,1.0
3320.0,1.27,1.03
3322.0,1.16,1.16
3323.0,1.15,1.19
3325.0,1.2,1.09
3328.0,1.26,1.11
3330.0,1.33,1.0
3332.0,1.42,1.04
3334.0,1.45,1.17
3336.0,1.41,1.33
3338.0,1.37,1.39
3340.0,1.33,1.44
3342.0,1.25,1.4
3344.0,1.27,1.37
3346.0,1.35,1.41
3348.0,1.44,1.38
3350.0,1.46,1.15
3352.0,1.52,1.13
3354.0,1.53,1.33
3356.0,1.48,1.44
3358.0,1.47,1.47
3360.0,1.43,1.53
3362.0,1.37,1.47
3364.0,1.38,1.45
3365.0,1.41,1.3
3367.0,1.52,1.1
3369.0,1.59,1.16
3372.0,1.63,1.47
3374.0,1.6,1.62
3376.0,1.61,1.75
3378.0,1.6,1.87
3380.0,1.48,1.96
3382.0,1.38,1.85
3384.0,1.39,1.82
3386.0,1.38,1.72
3388.0,1.46,1.6
3390.0,1.55,1.41
3392.0,1.56,1.49
3394.0,1.59,1.72
3396.0,1.61,1.77
3398.0,1.55,1.8
3400.0,1.4,1.85
3402.0,1.36,1.88
3404.0,1.32,1.84
3406.0,1.42,1.73
3408.0,1.49,1.68
3409.0,1.58,1.64
3411.0,1.61,1.66
3414.0,1.6,1.69
3416.0,1.57,1.74
3418.0,1.52,1.77
3420.0,1.42,1.84
3422.0,1.35,1.88
3424.0,1.37,1.93
3426.0,1.42,1.87
3428.0,1.47,1.83
3430.0,1.49,1.71
3432.0,1.51,1.71
3434.0,1.54,1.73
3436.0,1.54,1.8
3438.0,1.46,1.67
3440.0,1.4,1.63
3442.0,1.36,1.75
3444.0,1.32,1.79
3446.0,1.35,1.67
3448.0,1.43,1.72
3450.0,1.48,2.31
3451.0,1.49,2.06
3453.0,1.51,1.94
3456.0,1.49,1.9
3458.0,1.48,1.97
3460.0,1.35,2.02
3462.0,1.3,2.07
3464.0,1.33,2.11
3466.0,1.4,1.94
3468.0,1.47,1.79
3470.0,1.53,1.68
3472.0,1.56,1.68
3474.0,1.49,1.74
3476.0,1.48,1.91
3478.0,1.39,1.9
3480.0,1.3,1.91
3482.0,1.27,1.89
3484.0,1.26,1.82
3486.0,1.33,1.66
3488.0,1.4,1.5
3490.0,1.41,1.46
3492.0,1.41,1.52
3494.0,1.47,1.5
3495.0,1.47,1.46
3497.0,1.43,1.41
3500.0,1.35,1.36
3502.0,1.34,1.53
3504.0,1.32,1.89
3506.0,1.36,1.79
3508.0,1.43,1.73
3510.0,1.48,1.57
3512.0,1.53,1.57
3514.0,1.55,1.74
3516.0,1.54,1.89
3518.0,1.49,1.94
3520.0,1.45,1.84
3522.0,1.42,1.74
3524.0,1.43,1.77
3526.0,1.44,1.68
3528.0,1.56,1.65
3530.0,1.57,1.55
3532.0,1.59,1.67
3534.0,1.64,1.73
3536.0,1.61,1.69
3537.0,1.57,1.71
3539.0,1.46,1.69
3542.0,1.38,1.67
3544.0,1.4,1.71
3546.0,1.4,1.72
3548.0,1.5,1.65
3550.0,1.57,1.43
3552.0,1.61,1.47
3554.0,1.65,1.61
3556.0,1.59,1.61
3558.0,1.5,1.51
3560.0,1.39,1.49
3562.0,1.33,1.48
3564.0,1.28,1.4
3566.0,1.33,1.31
3568.0,1.42,1.18
3570.0,1.47,1.02
3572.0,1.53,1.02
3574.0,1.55,1.15
3576.0,1.51,1.29
3578.0,1.5,1.43
3580.0,1.44,1.44
3581.0,1.41,1.54
3584.0,1.37,1.54
3586.0,1.43,1.45
3588.0,1.58,1.41
3590.0,1.63,1.3
3592.0,1.64,1.35
3594.0,1.62,1.56
3596.0,1.59,1.74
3598.0,1.56,1.74
3600.0,1.42,1.64
3602.0,1.29,1.71
3604.0,1.22,1.84
3606.0,1.29,1.84
3608.0,1.45,1.66
3610.0,1.47,1.44
3612.0,1.45,1.46
3614.0,1.5,1.66
3616.0,1.44,1.72
3618.0,1.46,1.69
3620.0,1.33,1.71
3622.0,1.25,1.79
3623.0,1.29,1.82
3625.0,1.39,1.78
3628.0,1.44,1.67
3630.0,1.45,1.58
3632.0,1.45,1.77
3634.0,1.47,1.82
3636.0,1.46,1.71
3638.0,1.41,1.74
3640.0,1.38,1.68
3642.0,1.38,1.7
3644.0,1.37,1.91
3646.0,1.46,1.62
3648.0,1.5,1.39
3650.0,1.51,1.21
3652.0,1.53,1.33
3654.0,1.55,1.47
3656.0,1.52,1.51
3658.0,1.47,1.55
3660.0,1.39,1.28
3662.0,1.39,1.02
3664.0,1.38,1.02
3666.0,1.39,0.87
3667.0,1.46,0.77
3670.0,1.4,0.89
3672.0,1.35,0.88
3674.0,1.3,0.85
3676.0,1.32,0.89
3678.0,1.32,1.14
3680.0,1.28,1.07
3682.0,1.39,1.11
3684.0,1.51,1.22
3686.0,1.61,0.96
3688.0,1.69,0.88
3690.0,1.78,0.85
3692.0,1.8,1.05
3694.0,1.76,1.26
3696.0,1.77,1.34
3698.0,1.73,1.26
3700.0,1.49,1.39
3702.0,1.35,1.55
3704.0,1.34,1.42
3706.0,1.34,1.07
3708.0,1.51,0.85
3709.0,1.72,0.66
3712.0,1.85,0.71
3714.0,1.86,0.57
3716.0,1.89,0.27
3718.0,1.9,0.08
3720.0,1.92,0.39
3722.0,1.9,0.63
3724.0,1.92,0.64
3726.0,1.89,0.58
3728.0,1.94,0.54
3730.0,1.95,0.38
3732.0,1.92,0.47
3734.0,1.94,0.96
3736.0,1.9,1.21
3738.0,1.94,1.28
3740.0,1.86,1.27
3742.0,1.82,1.29
3744.0,1.87,1.14
3746.0,1.96,0.99
3748.0,2.08,0.78
3750.0,2.17,0.49
3752.0,2.21,0.56
3753.0,2.14,0.81
3756.0,2.1,0.87
3758.0,2.08,0.89
3760.0,2.1,1.03
3762.0,2.05,0.96
3764.0,1.99,0.58
3766.0,1.99,0.07
3768.0,2.01,0.0
3770.0,2.06,0.03
3772.0,1.95,0.23
3774.0,1.92,0.22
3776.0,1.93,0.31
3778.0,1.87,0.52
3780.0,1.74,0.68
3782.0,1.67,0.83
3784.0,1.62,0.86
3786.0,1.62,0.7
3788.0,1.63,0.67
3790.0,1.65,0.79
3792.0,1.72,1.1
3794.0,1.75,1.35
3795.0,1.75,1.29
3798.0,1.66,1.28
3800.0,1.49,1.23
3802.0,1.43,1.46
3804.0,1.43,1.88
3806.0,1.46,1.87
3808.0,1.56,1.84
3810.0,1.64,1.79
3812.0,1.7,1.95
3814.0,1.68,2.15
3816.0,1.63,2.47
3818.0,1.56,2.34
3820.0,1.45,2.23
3822.0,1.4,2.37
3824.0,1.32,2.44
3826.0,1.36,2.31
3828.0,1.41,2.22
3830.0,1.39,2.12
3832.0,1.4,2.08
3834.0,1.38,2.03
3836.0,1.38,1.91
3838.0,1.33,1.87
3840.0,1.23,1.97
3842.0,1.21,2.11
3844.0,1.15,2.06
3846.0,1.25,2.1
3848.0,1.4,2.05
3850.0,1.4,1.8
3852.0,1.37,1.75
3854.0,1.36,1.86
3856.0,1.34,1.92
3858.0,1.26,1.96
3860.0,1.12,2.02
3862.0,1.1,1.98
3864.0,1.2,1.76
3866.0,1.34,1.7
3868.0,1.48,1.93
3870.0,1.46,2.0
3872.0,1.46,2.25
3874.0,1.42,2.4
3876.0,1.39,2.36
3878.0,1.36,2.24
3880.0,1.2,1.98
3881.0,1.23,2.0
3884.0,1.25,2.3
3886.0,1.34,2.56
3888.0,1.42,2.54
3890.0,1.46,2.48
3892.0,1.52,2.48
3894.0,1.47,2.59
3896.0,1.43,2.76
3898.0,1.38,2.83
3900.0,1.17,2.68
3902.0,1.14,2.86
3904.0,1.13,2.91
3906.0,1.18,2.71
3908.0,1.29,2.7
3910.0,1.33,2.78
3912.0,1.37,2.97
3914.0,1.33,2.93
3916.0,1.33,2.85
3918.0,1.24,2.68
3920.0,1.11,2.77
3922.0,1.11,2.75
3924.0,1.11,2.47
3926.0,1.12,2.04
3928.0,1.25,1.73
3930.0,1.31,1.7
3932.0,1.32,1.76
3934.0,1.33,1.85
3936.0,1.3,2.43
3938.0,1.17,2.7
3940.0,1.05,2.74
3942.0,0.97,2.62
3944.0,0.96,2.39
3946.0,1.04,1.91
3948.0,1.1,1.44
3950.0,1.17,1.19
3952.0,1.21,1.14
3954.0,1.27,1.24
3956.0,1.24,1.51
3958.0,1.2,1.8
3960.0,1.08,1.88
3962.0,1.04,1.84
3964.0,1.06,1.71
3966.0,1.15,1.6
3968.0,1.24,1.43
3970.0,1.23,1.33
3972.0,1.31,1.24
3974.0,1.35,1.24
3976.0,1.31,1.15
3978.0,1.28,1.27
3980.0,1.19,1.55
3982.0,1.23,1.88
3984.0,1.27,1.8
3986.0,1.3,1.56
3988.0,1.38,1.42
3990.0,1.39,1.29
3992.0,1.4,1.47
3994.0,1.42,1.59
3996.0,1.38,1.66
3998.0,1.34,1.63
4000.0,1.26,1.89
4002.0,1.32,2.06
4004.0,1.39,2.12
4006.0,1.47,2.12
4008.0,1.52,2.08
4011.0,1.59,2.08
4012.0,1.65,2.38
4014.0,1.69,2.58
4016.0,1.65,2.71
4018.0,1.62,2.82
4020.0,1.48,2.84
4022.0,1.43,3.11
4024.0,1.42,3.3
4026.0,1.49,3.25
4028.0,1.55,3.1
4030.0,1.53,2.82
4032.0,1.47,2.65
4034.0,1.55,2.65
4036.0,1.52,2.82
4038.0,1.47,2.89
4040.0,1.35,2.91
4042.0,1.28,2.88
4044.0,1.27,2.79
4046.0,1.39,2.72
4048.0,1.52,2.61
4050.0,1.59,2.41
4052.0,1.61,2.32
4054.0,1.56,2.25
4056.0,1.53,2.17
4058.0,1.43,2.03
4060.0,1.3,1.95
4062.0,1.24,2.02
4064.0,1.23,2.05
4066.0,1.25,1.9
4068.0,1.34,1.91
4070.0,1.32,2.07
4072.0,1.25,2.3
4074.0,1.22,2.38
4076.0,1.23,2.35
4078.0,1.22,2.3
4080.0,1.1,2.16
4082.0,1.14,2.06
4084.0,1.14,1.94
4086.0,1.22,1.7
4088.0,1.32,1.48
4090.0,1.38,1.42
4092.0,1.44,1.62
4094.0,1.45,1.67
4097.0,1.38,1.59
4098.0,1.34,1.54
4100.0,1.27,1.52
4102.0,1.25,1.63
4104.0,1.25,1.59
4106.0,1.35,1.51
4108.0,1.44,1.48
4110.0,1.48,1.46
4112.0,1.53,1.51
4114.0,1.44,1.67
4116.0,1.39,1.7
4118.0,1.28,1.5
4120.0,1.16,1.19
4122.0,1.19,1.08
4124.0,1.22,0.96
4126.0,1.25,0.86
4128.0,1.34,0.8
4130.0,1.38,0.67
4132.0,1.46,0.82
4134.0,1.51,0.97
4136.0,1.48,0.94
4139.0,1.4,0.88
4141.0,1.29,1.02
4142.0,1.28,1.16
4144.0,1.26,0.99
4146.0,1.32,0.54
4148.0,1.38,0.13
4150.0,1.37,0.0
4152.0,1.4,0.0
4154.0,1.45,0.0
4156.0,1.4,0.0
4158.0,1.29,0.0
4160.0,1.14,0.0
4162.0,1.18,0.0
4164.0,1.22,0.0
4166.0,1.28,0.0
4168.0,1.37,0.0
4170.0,1.43,0.0
4172.0,1.46,0.0
4174.0,1.51,0.06
4176.0,1.53,0.25
4178.0,1.48,0.27
4180.0,1.35,0.13
4183.0,1.32,0.04
4184.0,1.34,0.18
4186.0,1.35,0.0
4188.0,1.41,0.0
4190.0,1.41,0.0
4192.0,1.44,0.12
4194.0,1.43,0.21
4196.0,1.41,0.17
4198.0,1.37,0.17
4200.0,1.23,0.19
4202.0,1.22,0.34
4204.0,1.2,0.24
4206.0,1.3,0.07
4208.0,1.44,0.01
4210.0,1.47,0.01
4212.0,1.45,0.16
4214.0,1.45,0.42
4216.0,1.45,0.59
4218.0,1.4,0.63
4220.0,1.3,0.65
4222.0,1.29,0.74
4225.0,1.28,0.76
4227.0,1.38,0.77
4228.0,1.44,0.66
4230.0,1.4,0.5
4232.0,1.38,0.55
4234.0,1.39,0.61
4236.0,1.35,0.74
4238.0,1.31,0.89
4240.0,1.18,1.0
4242.0,1.14,1.29
4244.0,1.16,1.44
4246.0,1.25,1.35
4248.0,1.36,1.38
4250.0,1.38,1.52
4252.0,1.39,1.67
4254.0,1.44,1.83
4256.0,1.42,2.02
4258.0,1.33,2.16
4260.0,1.2,2.23
4262.0,1.23,2.42
4264.0,1.23,2.33
4267.0,1.29,2.07
4269.0,1.42,1.79
4270.0,1.43,1.62
4272.0,1.44,1.61
4274.0,1.46,1.65
4276.0,1.45,1.63
4278.0,1.43,1.57
4280.0,1.33,1.5
4282.0,1.33,1.54
4284.0,1.31,1.51
4286.0,1.37,1.41
4288.0,1.48,1.42
4290.0,1.48,1.35
4292.0,1.5,1.46
4294.0,1.54,1.59
4296.0,1.53,1.58
4298.0,1.43,1.51
4300.0,1.34,1.6
4302.0,1.35,1.7
4304.0,1.39,1.66
4306.0,1.49,1.6
4308.0,1.55,1.43
4311.0,1.56,1.33
4313.0,1.58,1.45
4314.0,1.59,1.58
4316.0,1.49,1.68
4318.0,1.45,1.63
4320.0,1.33,1.5
4322.0,1.35,1.47
4324.0,1.32,1.38
4326.0,1.41,1.26
4328.0,1.53,1.07
4330.0,1.55,0.89
4332.0,1.58,0.88
4334.0,1.59,0.91
4336.0,1.56,0.98
4338.0,1.5,1.06
4340.0,1.42,1.09
4342.0,1.42,1.39
4344.0,1.37,1.54
4346.0,1.49,1.48
4348.0,1.54,1.36
4350.0,1.58,1.26
4353.0,1.65,1.45
4355.0,1.63,1.72
4356.0,1.55,1.8
4358.0,1.54,1.92
4360.0,1.38,1.95
4362.0,1.4,1.98
4364.0,1.41,1.92
4366.0,1.47,1.83
4368.0,1.54,1.77
4370.0,1.53,1.72
4372.0,1.59,1.84
4374.0,1.56,1.83
4376.0,1.59,1.93
4378.0,1.56,1.99
4380.0,1.45,2.03
4382.0,1.42,2.06
4384.0,1.41,1.99
4386.0,1.48,1.94
4388.0,1.58,1.76
4390.0,1.58,1.6
4392.0,1.65,1.65
4395.0,1.61,1.68
4397.0,1.59,1.73
4399.0,1.55,1.84
4400.0,1.41,1.93
4402.0,1.41,1.98
4404.0,1.46,2.04
4406.0,1.55,2.08
4408.0,1.61,2.05
4410.0,1.63,2.01
4412.0,1.68,2.07
4414.0,1.61,1.96
4416.0,1.55,2.09
4418.0,1.52,2.3
4420.0,1.39,3.0
4422.0,1.39,3.2
4424.0,1.38,3.05
4426.0,1.47,2.92
4428.0,1.57,2.82
4430.0,1.54,2.75
4432.0,1.55,3.19
4434.0,1.59,3.3
4436.0,1.6,3.3
4439.0,1.55,3.3
4441.0,1.42,3.3
4442.0,1.39,3.3
4444.0,1.41,3.3
4446.0,1.44,3.3
4448.0,1.61,3.3
4450.0,1.62,2.89
4452.0,1.62,2.71
4454.0,1.61,2.63
4456.0,1.6,2.63
4458.0,1.5,2.75
4460.0,1.39,2.76
4462.0,1.42,2.85
4464.0,1.42,2.8
4466.0,1.46,3.11
4468.0,1.54,3.3
4470.0,1.51,3.3
4472.0,1.43,3.3
4474.0,1.49,3.3
4476.0,1.48,3.3
4478.0,1.47,3.3
4481.0,1.37,3.3
4483.0,1.4,3.3
4485.0,1.4,3.3
4486.0,1.46,3.3
4488.0,1.56,3.3
4490.0,1.55,3.3
4492.0,1.57,3.26
4494.0,1.61,3.18
4496.0,1.57,3.16
4498.0,1.46,3.07
4500.0,1.25,2.87
4502.0,1.24,2.83
4504.0,1.24,2.55
4506.0,1.33,2.26
4508.0,1.43,2.21
4510.0,1.43,2.1
4512.0,1.5,2.12
4514.0,1.52,2.11
4516.0,1.49,2.0
4518.0,1.44,1.96
4520.0,1.32,1.96
4523.0,1.33,2.09
4525.0,1.35,2.0
4527.0,1.43,1.87
4528.0,1.5,1.77
4530.0,1.5,1.64
4532.0,1.56,1.75
4534.0,1.52,1.75
4536.0,1.43,1.85
4538.0,1.37,2.0
4540.0,1.27,1.92
4542.0,1.32,1.96
4544.0,1.28,1.85
4546.0,1.39,1.71
4548.0,1.43,1.52
4550.0,1.43,1.51
4552.0,1.49,1.62
4554.0,1.48,1.5
4556.0,1.44,1.25
4558.0,1.42,1.2
4560.0,1.29,1.13
4562.0,1.32,1.06
4564.0,1.35,0.84
4567.0,1.4,0.69
4569.0,1.51,0.68
4571.0,1.49,0.75
4572.0,1.5,0.99
4574.0,1.56,1.05
4576.0,1.52,1.03
4578.0,1.53,1.15
4580.0,1.38,1.02
4582.0,1.41,1.16
4584.0,1.39,1.24
4586.0,1.5,1.16
4588.0,1.6,1.0
4590.0,1.6,0.99
4592.0,1.63,1.04
4594.0,1.6,1.08
4596.0,1.6,1.19
4598.0,1.57,1.28
4600.0,1.43,1.24
4602.0,1.45,1.26
4604.0,1.48,1.38
4606.0,1.53,1.44
4609.0,1.58,1.32
4611.0,1.62,0.0
4613.0,1.67,0.0
4614.0,1.64,0.0
4616.0,1.58,0.0
4618.0,1.46,0.0
4620.0,1.35,0.0
4622.0,1.35,0.0
4624.0,1.42,0.0
4626.0,1.48,0.0
4628.0,1.61,0.0
4630.0,1.59,0.0
4632.0,1.57,0.0
4634.0,1.56,0.0
4636.0,1.58,0.0
4638.0,1.49,0.0
4640.0,1.36,0.0
4642.0,1.36,0.0
4644.0,1.4,0.0
4646.0,1.41,0.0
4648.0,1.51,0.02
4651.0,1.5,0.2
4653.0,1.55,0.5
4655.0,1.55,0.8
4657.0,1.52,1.1
4658.0,1.42,1.39
4660.0,1.33,1.57
4662.0,1.34,1.76
4664.0,1.36,1.79
4666.0,1.42,1.75
4668.0,1.54,1.69
4670.0,1.52,1.72
4672.0,1.53,2.12
4674.0,1.54,2.57
4676.0,1.52,2.81
4678.0,1.42,2.77
4680.0,1.31,2.6
4682.0,1.31,2.66
4684.0,1.28,2.58
4686.0,1.35,2.24
4688.0,1.44,1.83
4690.0,1.48,2.12
4692.0,1.5,2.35
4695.0,1.51,2.02
4697.0,1.47,1.99
4699.0,1.4,1.98
4700.0,1.27,1.93
4702.0,1.34,2.0
4704.0,1.34,1.95
4706.0,1.42,1.92
4708.0,1.53,1.69
4710.0,1.56,1.59
4712.0,1.6,1.71
4714.0,1.64,1.82
4716.0,1.59,1.68
4718.0,1.57,1.6
4720.0,1.45,1.79
4722.0,1.5,1.93
4724.0,1.55,1.98
4726.0,1.64,1.79
4728.0,1.77,1.42
4730.0,1.81,1.31
4732.0,1.88,1.18
4734.0,1.85,1.0
4737.0,1.83,0.84
4739.0,1.77,0.82
4741.0,1.65,0.92
4743.0,1.65,1.16
4744.0,1.65,0.84
4746.0,1.72,0.51
4748.0,1.8,0.33
4750.0,1.81,0.22
4752.0,1.88,0.38
4754.0,1.85,0.33
4756.0,1.77,0.01
4758.0,1.72,0.15
4760.0,1.62,0.45
4762.0,1.59,0.78
4764.0,1.63,0.85
4766.0,1.68,0.83
4768.0,1.72,0.75
4770.0,1.71,0.81
4772.0,1.7,0.78
4774.0,1.7,0.77
4776.0,1.68,0.85
4779.0,1.6,0.85
4781.0,1.49,0.73
4783.0,1.55,0.4
4785.0,1.59,0.03
4787.0,1.66,0.0
4788.0,1.74,0.05
4790.0,1.73,0.02
4792.0,1.78,0.04
4794.0,1.76,0.07
4796.0,1.68,0.27
4798.0,1.61,0.39
4800.0,1.45,0.36
4802.0,1.41,0.26
4804.0,1.5,0.61
4806.0,1.56,0.63
4808.0,1.66,0.43
4810.0,1.69,0.37
4812.0,1.73,0.6
4814.0,1.66,0.71
4816.0,1.63,0.73
4818.0,1.49,0.66
4820.0,1.34,0.6
4823.0,1.36,0.74
4825.0,1.41,0.85
4827.0,1.48,0.73
4829.0,1.51,0.62
4831.0,1.43,0.7
4832.0,1.42,1.12
4834.0,1.37,1.0
4836.0,1.35,0.75
4838.0,1.3,0.63
4840.0,1.2,0.54
4842.0,1.2,0.52
4844.0,1.28,0.66
4846.0,1.36,0.72
4848.0,1.45,0.81
4850.0,1.53,0.79
4852.0,1.61,0.91
4854.0,1.65,0.88
4856.0,1.67,1.0
4858.0,1.54,1.0
4860.0,1.42,1.05
4862.0,1.4,1.19
4865.0,1.46,1.18
4867.0,1.53,1.15
4869.0,1.62,1.16
4871.0,1.54,1.12
4873.0,1.5,1.2
4874.0,1.57,1.25
4876.0,1.5,1.34
4878.0,1.4,1.49
4880.0,1.32,1.43
4882.0,1.31,1.69
4884.0,1.35,1.62
4886.0,1.42,1.68
4888.0,1.47,1.79
4890.0,1.46,2.23
4892.0,1.5,2.76
4894.0,1.51,3.16
4896.0,1.5,3.15
4898.0,1.43,2.89
4900.0,1.29,2.82
4902.0,1.35,2.89
4904.0,1.35,2.77
4907.0,1.4,2.6
4909.0,1.47,2.28
4911.0,1.5,2.04
4913.0,1.56,2.13
4915.0,1.55,2.2
4917.0,1.47,2.09
4918.0,1.35,2.01
4920.0,1.25,1.97
4922.0,1.23,2.01
4924.0,1.24,1.94
4926.0,1.38,1.81
4928.0,1.4,1.54
4930.0,1.35,1.55
4932.0,1.38,1.65
4934.0,1.4,1.78
4936.0,1.37,2.04
4938.0,1.33,2.0
4940.0,1.19,1.92
4942.0,1.16,1.92
4944.0,1.18,1.85
4946.0,1.24,1.83
4948.0,1.3,1.75
4951.0,1.28,1.6
4953.0,1.3,1.52
4955.0,1.29,1.45
4957.0,1.25,1.44
4959.0,1.17,1.56
4961.0,1.09,1.65
4962.0,1.06,1.65
4964.0,1.14,1.54
4966.0,1.26,1.39
4968.0,1.33,1.13
4970.0,1.22,1.09
4972.0,1.29,1.21
4974.0,1.37,1.4
4976.0,1.31,1.46
4978.0,1.26,1.25
4980.0,1.16,1.25
4982.0,1.11,1.36
4984.0,1.2,1.3
4986.0,1.29,1.18
4988.0,1.4,0.97
4990.0,1.4,0.86
4993.0,1.45,0.91
4995.0,1.42,0.56
4997.0,1.39,0.3
4999.0,1.35,0.21
5001.0,1.23,0.27
5003.0,1.19,0.45
5004.0,1.22,0.36
5006.0,1.35,0.33
5008.0,1.4,0.39
5010.0,1.44,0.55
5012.0,1.47,0.53
5014.0,1.46,0.59
5016.0,1.42,0.59
5018.0,1.33,0.48
5020.0,1.24,0.48
5022.0,1.22,0.57
5024.0,1.28,0.44
5026.0,1.35,0.28
5028.0,1.42,0.08
5030.0,1.48,0.05
5032.0,1.5,0.25
5035.0,1.5,0.52
5037.0,1.41,0.74
5039.0,1.3,0.91
5041.0,1.27,1.04
5043.0,1.28,0.88
5045.0,1.32,0.73
5047.0,1.37,0.89
5048.0,1.37,0.85
5050.0,1.38,0.85
5052.0,1.47,1.08
5054.0,1.48,1.08
5056.0,1.43,1.03
5058.0,1.38,1.04
5060.0,1.3,1.03
5062.0,1.37,1.06
5064.0,1.41,0.85
5066.0,1.44,0.69
5068.0,1.45,0.62
5070.0,1.45,0.73
5072.0,1.52,0.85
5074.0,1.56,1.02
5076.0,1.6,1.06
5079.0,1.51,1.04
5081.0,1.38,0.99
5083.0,1.35,0.99
5085.0,1.42,0.88
5087.0,1.49,0.74
5089.0,1.56,0.73
5091.0,1.57,0.79
5092.0,1.58,0.92
5094.0,1.54,1.09
5096.0,1.52,1.14
5098.0,1.42,1.04
5100.0,1.34,1.2
5102.0,1.29,1.39
5104.0,1.34,1.37
5106.0,1.42,1.31
5108.0,1.41,1.31
5110.0,1.35,1.4
5112.0,1.33,1.56
5114.0,1.27,1.8
5116.0,1.24,1.9
5118.0,1.11,1.76
5121.0,1.07,1.71
5123.0,1.07,1.83
5125.0,1.15,1.85
5127.0,1.21,1.82
5129.0,1.29,1.72
5131.0,1.31,1.67
5133.0,1.38,1.62
5135.0,1.41,1.65
5136.0,1.41,1.91
5138.0,1.3,1.99
5140.0,1.21,2.13
5142.0,1.22,2.27
5144.0,1.29,2.2
5146.0,1.34,2.09
5148.0,1.41,1.95
5150.0,1.45,1.93
5152.0,1.48,2.06
5154.0,1.47,2.18
5156.0,1.44,2.25
5158.0,1.31,2.28
5160.0,1.27,2.4
5163.0,1.28,2.39
5165.0,1.35,2.23
5167.0,1.36,2.03
5169.0,1.41,1.96
5171.0,1.44,2.03
5173.0,1.38,2.01
5175.0,1.45,2.08
5177.0,1.42,2.1
5179.0,1.25,2.04
5180.0,1.2,2.11
5182.0,1.22,2.2
5184.0,1.24,2.14
5186.0,1.31,2.09
5188.0,1.38,2.06
5190.0,1.4,2.15
5192.0,1.43,2.13
5194.0,1.48,2.11
5196.0,1.42,1.98
5198.0,1.3,1.99
5200.0,1.29,2.01
5202.0,1.32,2.04
5204.0,1.38,1.94
5207.0,1.43,1.8
5209.0,1.52,1.67
5211.0,1.59,1.79
5213.0,1.61,1.77
5215.0,1.57,1.83
5217.0,1.45,1.95
5219.0,1.41,2.05
5221.0,1.37,2.03
5222.0,1.38,2.07
5224.0,1.45,1.98
5226.0,1.56,1.75
5228.0,1.59,1.55
5230.0,1.56,1.53
5232.0,1.6,1.64
5234.0,1.63,1.6
5236.0,1.55,1.56
5238.0,1.43,1.58
5240.0,1.33,1.57
5242.0,1.3,1.61
5244.0,1.37,1.74
5246.0,1.47,1.65
5249.0,1.47,1.52
5251.0,1.45,1.54
5253.0,1.45,1.49
5255.0,1.46,1.5
5257.0,1.37,1.49
5259.0,1.27,1.56
5261.0,1.27,1.66
5263.0,1.25,1.75
5265.0,1.27,1.67
5266.0,1.38,1.52
5268.0,1.46,1.48
5270.0,1.46,1.61
5272.0,1.49,1.85
5274.0,1.53,1.96
5276.0,1.5,1.79
5278.0,1.41,1.64
5280.0,1.39,1.71
5282.0,1.35,1.76
5284.0,1.38,1.63
5286.0,1.47,1.38
5288.0,1.51,1.17
5291.0,1.56,1.23
5293.0,1.61,1.35
5295.0,1.55,1.53
5297.0,1.52,1.78
5299.0,1.41,1.8
5301.0,1.39,1.85
5303.0,1.36,1.98
5305.0,1.44,1.96
5307.0,1.53,1.82
5308.0,1.58,1.72
5310.0,1.59,1.71
5312.0,1.61,1.86
5314.0,1.61,1.92
5316.0,1.54,1.88
5318.0,1.4,1.91
5320.0,1.32,2.03
5322.0,1.3,2.03
5324.0,1.33,1.95
5326.0,1.42,1.86
5328.0,1.46,1.65
5330.0,1.5,1.77
5332.0,1.55,1.96
5335.0,1.51,2.05
5337.0,1.42,2.25
5339.0,1.35,2.43
5341.0,1.32,2.48
5343.0,1.32,2.48
5345.0,1.46,2.52
5347.0,1.47,2.42
5349.0,1.51,2.07
5351.0,1.55,2.01
5352.0,1.58,2.11
5354.0,1.56,2.34
5356.0,1.55,2.42
5358.0,1.44,2.23
5360.0,1.41,2.1
5362.0,1.42,2.12
5364.0,1.41,2.01
5366.0,1.52,1.92
5368.0,1.55,1.75
5370.0,1.5,1.76
5372.0,1.49,1.65
5374.0,1.53,1.61
5377.0,1.54,1.45
5379.0,1.44,1.34
5381.0,1.4,1.32
5383.0,1.41,1.46
5385.0,1.47,1.47
5387.0,1.57,1.44
5389.0,1.62,1.36
5391.0,1.61,1.31
5393.0,1.6,1.27
5394.0,1.64,1.48
5396.0,1.56,1.51
5398.0,1.46,1.46
5400.0,1.43,1.53
5402.0,1.41,1.55
5404.0,1.47,1.46
5406.0,1.56,1.65
5408.0,1.55,2.11
5410.0,1.55,2.19
5412.0,1.58,2.08
5414.0,1.58,1.99
5416.0,1.5,1.97
5419.0,1.39,1.85
5421.0,1.4,1.84
5423.0,1.37,1.68
5425.0,1.45,1.38
5427.0,1.55,1.26
5429.0,1.51,1.26
5431.0,1.51,1.3
5433.0,1.6,1.36
5435.0,1.58,1.34
5437.0,1.49,1.3
5438.0,1.38,1.25
5440.0,1.41,1.38
5442.0,1.34,1.36
5444.0,1.35,1.18
5446.0,1.46,1.03
5448.0,1.42,0.97
5450.0,1.44,1.01
5452.0,1.45,1.03
5454.0,1.41,1.12
5456.0,1.35,1.1
5458.0,1.25,1.15
5460.0,1.31,1.27
5463.0,1.3,1.39
5465.0,1.35,1.34
5467.0,1.41,1.17
5469.0,1.44,1.0
5471.0,1.41,1.01
5473.0,1.4,1.06
5475.0,1.41,1.06
5477.0,1.41,1.05
5479.0,1.32,1.18
5480.0,1.31,1.29
5482.0,1.29,1.25
5484.0,1.31,1.15
5486.0,1.43,1.11
5488.0,1.45,1.1
5490.0,1.51,1.16
5492.0,1.54,1.3
5494.0,1.53,1.41
5496.0,1.46,1.47
5498.0,1.34,1.5
5500.0,1.3,1.41
5502.0,1.3,1.25
5505.0,1.42,1.2
5507.0,1.45,1.13
5509.0,1.46,1.0
5511.0,1.53,1.1
5513.0,1.61,1.22
5515.0,1.57,1.23
5517.0,1.59,1.27
5519.0,1.41,1.24
5521.0,1.37,1.32
5523.0,1.38,1.52
5524.0,1.42,1.52
5526.0,1.52,1.41
5528.0,1.52,1.28
5530.0,1.49,1.45
5532.0,1.53,1.6
5534.0,1.59,1.74
5536.0,1.55,1.73
5538.0,1.39,1.77
5540.0,1.31,1.79
5542.0,1.28,1.76
5544.0,1.37,1.75
5547.0,1.43,1.56
5549.0,1.49,1.34
5551.0,1.55,1.3
5553.0,1.56,1.37
5555.0,1.53,1.43
5557.0,1.53,1.57
5559.0,1.39,1.58
5561.0,1.32,1.56
5563.0,1.34,1.51
5565.0,1.43,1.29
5567.0,1.49,1.14
5568.0,1.52,1.16
5570.0,1.55,1.44
5572.0,1.52,1.45
5574.0,1.55,1.28
5576.0,1.51,1.3
5578.0,1.4,1.27
5580.0,1.35,1.48
5582.0,1.37,1.55
5584.0,1.46,1.41
5586.0,1.55,1.21
5588.0,1.57,1.06
5591.0,1.58,1.2
5593.0,1.52,1.3
5595.0,1.45,1.34
5597.0,1.41,1.26
5599.0,1.31,1.23
5601.0,1.29,1.37
5603.0,1.32,1.26
5605.0,1.39,0.95
5607.0,1.48,0.73
5609.0,1.51,0.78
5611.0,1.55,0.91
5612.0,1.51,0.94
5614.0,1.54,1.07
5616.0,1.43,1.13
5618.0,1.3,1.19
5620.0,1.27,1.22
5622.0,1.25,1.21
5624.0,1.24,1.04
5626.0,1.34,0.99
5628.0,1.37,0.88
5630.0,1.44,0.83
5633.0,1.53,1.23
5635.0,1.48,1.44
5637.0,1.42,1.26
5639.0,1.31,1.09
5641.0,1.29,1.17
5643.0,1.3,1.23
5645.0,1.29,1.24
5647.0,1.45,1.13
5649.0,1.48,1.17
5651.0,1.55,1.4
5653.0,1.59,1.42
5654.0,1.54,1.12
5656.0,1.46,1.01
5658.0,1.36,1.15
5660.0,1.34,1.33
5662.0,1.4,1.39
5664.0,1.54,1.37
5666.0,1.68,1.19
5668.0,1.75,1.29
5670.0,1.67,1.4
5672.0,1.77,1.54
5675.0,1.76,1.56
5677.0,1.79,1.56
5679.0,1.69,1.7
5681.0,1.68,1.8
5683.0,1.66,1.8
5685.0,1.77,1.7
5687.0,1.91,1.56
5689.0,1.96,1.39
5691.0,2.06,1.41
5693.0,2.13,1.45
5695.0,2.11,1.52
5697.0,2.07,1.59
5698.0,1.93,1.21
5700.0,2.0,1.06
5702.0,2.01,1.05
5704.0,2.12,1.24
5706.0,2.15,0.95
5708.0,2.14,0.45
5710.0,2.17,0.33
5712.0,2.3,0.44
5714.0,2.25,0.39
5716.0,2.19,0.28
5719.0,2.06,0.37
5721.0,2.04,0.37
5723.0,1.97,0.29
5725.0,2.05,0.13
5727.0,2.12,0.0
5729.0,2.07,0.0
5731.0,2.01,0.0
5733.0,1.99,0.0
5735.0,1.96,0.0
5737.0,1.88,0.0
5739.0,1.7,0.0
5741.0,1.64,0.17
5742.0,1.59,0.26
5744.0,1.65,0.04
5746.0,1.74,0.0
5748.0,1.73,0.0
5750.0,1.72,0.0
5752.0,1.73,0.04
5754.0,1.71,0.12
5756.0,1.57,0.16
5758.0,1.36,0.0
5761.0,1.28,0.0
5763.0,1.23,0.0
5765.0,1.26,0.0
5767.0,1.32,0.0
5769.0,1.27,0.0
5771.0,1.33,0.0
5773.0,1.32,0.0
5775.0,1.28,0.0
5777.0,1.27,0.0
5779.0,1.15,0.0
5781.0,1.21,0.0
5783.0,1.16,0.0
5785.0,1.16,0.0
5786.0,1.27,0.0
5788.0,1.32,0.0
5790.0,1.34,0.0
5792.0,1.38,0.01
5794.0,1.4,0.0
5796.0,1.36,0.09
5798.0,1.23,0.41
5800.0,1.26,0.94
5803.0,1.24,1.15
5805.0,1.36,1.15
5807.0,1.5,0.99
5809.0,1.49,0.68
5811.0,1.5,0.75
5813.0,1.55,0.75
5815.0,1.49,0.6
5817.0,1.29,0.69
5819.0,0.98,0.75
5821.0,0.92,0.84
5823.0,0.88,0.79
5825.0,1.0,0.65
5827.0,1.16,0.72
5829.0,1.2,0.85
5830.0,1.17,1.15
5832.0,1.25,1.33
5834.0,1.3,1.41
5836.0,1.27,1.86
5838.0,1.18,2.08
5840.0,1.2,2.21
5842.0,1.26,2.47
5844.0,1.33,2.43
5847.0,1.41,2.19
5849.0,1.45,2.02
5851.0,1.49,2.41
5853.0,1.46,2.64
5855.0,1.4,2.59
5857.0,1.4,2.75
5859.0,1.31,2.93
5861.0,1.35,3.29
5863.0,1.35,3.28
5865.0,1.45,3.16
5867.0,1.46,3.0
5869.0,1.47,2.69
5871.0,1.41,2.61
5872.0,1.39,2.54
5874.0,1.33,2.7
5876.0,1.28,2.73
5878.0,1.2,2.82
5880.0,1.21,2.93
5882.0,1.21,2.93
5884.0,1.27,2.8
5886.0,1.35,2.56
5889.0,1.38,2.45
5891.0,1.43,2.49
5893.0,1.49,2.6
5895.0,1.5,2.47
5897.0,1.52,2.45
5899.0,1.33,2.13
5901.0,1.3,2.09
5903.0,1.31,2.26
5905.0,1.39,2.29
5907.0,1.51,2.07
5909.0,1.46,1.79
5911.0,1.47,2.4
5913.0,1.48,2.86
5915.0,1.45,3.29
5916.0,1.31,3.3
5918.0,1.21,3.3
5920.0,1.26,3.3
5922.0,1.26,3.3
5924.0,1.28,3.3
5926.0,1.34,3.3
5928.0,1.33,3.3
5931.0,1.29,3.3
5933.0,1.39,3.3
5935.0,1.38,3.3
5937.0,1.29,3.3
5939.0,1.21,3.21
5941.0,1.25,3.24
5943.0,1.22,3.24
5945.0,1.23,3.18
5947.0,1.34,3.3
5949.0,1.31,3.3
5951.0,1.35,3.3
5953.0,1.38,3.3
5955.0,1.4,3.3
5957.0,1.32,3.3
5958.0,1.23,3.3
5960.0,1.33,3.3
5962.0,1.32,3.3
5964.0,1.37,3.3
5966.0,1.44,3.3
5968.0,1.45,3.3
5970.0,1.41,3.3
5972.0,1.43,3.27
5975.0,1.51,3.19
5977.0,1.48,3.01
5979.0,1.36,2.85
5981.0,1.37,2.99
5983.0,1.3,2.75
5985.0,1.32,2.37
5987.0,1.43,1.95
5989.0,1.42,1.56
5991.0,1.51,1.5
5993.0,1.55,1.6
5995.0,1.46,1.55
5997.0,1.38,1.52
5999.0,1.24,1.52
6001.0,1.22,1.65
6002.0,1.25,1.56
6004.0,1.35,1.31
6006.0,1.44,1.07
6008.0,1.44,0.98
6010.0,1.46,1.05
6012.0,1.55,1.02
6014.0,1.51,0.86
6017.0,1.4,0.81
6019.0,1.21,0.82
6021.0,1.25,0.97
6023.0,1.23,0.77
6025.0,1.3,0.64
6027.0,1.43,0.41
6029.0,1.41,0.0
6031.0,1.39,0.08
6033.0,1.42,0.5
6035.0,1.41,0.36
6037.0,1.35,0.07
6039.0,1.24,0.14
6041.0,1.28,0.0
6043.0,1.27,0.0
6044.0,1.32,0.0
6046.0,1.38,0.0
6048.0,1.4,0.0
6050.0,1.43,0.0
6052.0,1.45,0.0
6054.0,1.43,0.0
6056.0,1.41,0.21
6059.0,1.25,0.29
6061.0,1.29,0.39
6063.0,1.35,0.33
6065.0,1.47,0.24
6067.0,1.53,0.0
6069.0,1.54,0.0
6071.0,1.53,0.22
6073.0,1.53,0.69
6075.0,1.47,0.91
6077.0,1.41,0.96
6079.0,1.33,1.02
6081.0,1.32,1.15
6083.0,1.29,1.18
6085.0,1.35,1.13
6087.0,1.42,0.94
6089.0,1.37,0.9
6090.0,1.41,1.11
6092.0,1.45,1.11
6094.0,1.42,1.09
6096.0,1.33,0.99
6098.0,1.16,0.91
6100.0,1.15,1.02
6103.0,1.14,1.15
6105.0,1.2,1.18
6107.0,1.3,1.15
6109.0,1.25,1.18
6111.0,1.25,1.35
6113.0,1.27,1.34
6115.0,1.25,1.42
6117.0,1.21,1.48
6119.0,1.11,1.59
6121.0,1.13,1.62
6123.0,1.17,1.52
6125.0,1.25,1.49
6127.0,1.28,1.28
6129.0,1.3,1.17
6131.0,1.26,1.49
6133.0,1.28,1.61
6134.0,1.27,1.6
6136.0,1.27,1.57
6138.0,1.23,1.5
6140.0,1.22,1.47
6142.0,1.23,1.4
6145.0,1.28,1.35
6147.0,1.39,1.33
6149.0,1.46,1.4
6151.0,1.55,1.48
6153.0,1.55,1.37
6155.0,1.53,1.35
6157.0,1.39,1.37
6159.0,1.25,1.32
6161.0,1.32,1.34
6163.0,1.31,1.33
6165.0,1.39,1.28
6167.0,1.49,1.22
6169.0,1.47,1.35
6171.0,1.41,1.45
6173.0,1.4,1.41
6175.0,1.36,1.33
6176.0,1.33,1.36
6178.0,1.21,1.31
6180.0,1.22,1.37
6182.0,1.24,1.25
6184.0,1.27,1.34
6187.0,1.36,1.48
6189.0,1.38,1.45
6191.0,1.39,1.39
6193.0,1.44,1.36
6195.0,1.42,1.36
6197.0,1.36,1.61
6199.0,1.21,1.66
6201.0,1.21,1.95
6203.0,1.21,2.27
6205.0,1.31,2.44
6207.0,1.41,2.36
6209.0,1.43,2.1
6211.0,1.51,1.85
6213.0,1.53,1.8
6215.0,1.5,1.65
6217.0,1.42,1.57
6219.0,1.32,1.51
6220.0,1.37,1.49
6222.0,1.39,1.29
6224.0,1.48,1.12
6226.0,1.63,1.04
6228.0,1.57,1.09
6231.0,1.52,1.27
6233.0,1.53,1.43
6235.0,1.51,1.64
6237.0,1.48,1.73
6239.0,1.44,1.73
6241.0,1.46,1.93
6243.0,1.47,1.94
6245.0,1.55,1.86
6247.0,1.59,1.84
6249.0,1.58,1.85
6251.0,1.62,2.15
6253.0,1.63,2.53
6255.0,1.55,2.59
6257.0,1.52,2.81
6259.0,1.41,2.91
6261.0,1.38,3.02
6263.0,1.42,3.16
6264.0,1.52,3.01
6266.0,1.59,2.74
6268.0,1.53,2.58
6270.0,1.48,2.53
6273.0,1.55,2.41
6275.0,1.56,2.31
6277.0,1.5,2.05
6279.0,1.39,1.87
6281.0,1.39,1.75
6283.0,1.42,1.7
6285.0,1.54,1.73
6287.0,1.56,1.76
6289.0,1.54,1.62
6291.0,1.61,1.66
6293.0,1.63,1.67
6295.0,1.58,1.53
6297.0,1.55,1.54
6299.0,1.45,1.49
6301.0,1.45,1.48
6303.0,1.45,1.45
6305.0,1.5,1.28
6307.0,1.56,1.17
6308.0,1.57,1.24
6310.0,1.63,1.35
6312.0,1.61,1.37
6315.0,1.59,1.44
6317.0,1.51,1.55
6319.0,1.39,1.64
6321.0,1.39,1.78
6323.0,1.43,1.68
6325.0,1.5,1.5
6327.0,1.6,1.48
6329.0,1.59,1.61
6331.0,1.57,1.75
6333.0,1.64,1.86
6335.0,1.57,2.15
6337.0,1.56,2.41
6339.0,1.45,2.39
6341.0,1.44,2.41
6343.0,1.52,2.27
6345.0,1.53,2.11
6347.0,1.59,1.89
6349.0,1.61,1.69
6351.0,1.63,1.7
6352.0,1.66,1.66
6354.0,1.65,1.56
6356.0,1.53,1.47
6359.0,1.41,1.46
6361.0,1.41,1.41
6363.0,1.42,1.53
6365.0,1.49,1.62
6367.0,1.59,1.51
6369.0,1.59,1.56
6371.0,1.52,1.56
6373.0,1.63,1.75
6375.0,1.66,1.74
6377.0,1.53,1.59
6379.0,1.4,1.61
6381.0,1.42,1.71
6383.0,1.45,1.62
6385.0,1.5,1.56
6387.0,1.55,1.42
6389.0,1.54,1.42
6391.0,1.56,1.61
6393.0,1.55,1.75
6395.0,1.5,1.89
6396.0,1.39,1.89
6398.0,1.25,1.81
6401.0,1.24,1.66
6403.0,1.27,1.5
6405.0,1.37,1.42
6407.0,1.44,1.36
6409.0,1.44,1.42
6411.0,1.45,1.46
6413.0,1.52,1.45
6415.0,1.45,1.49
6417.0,1.38,1.54
6419.0,1.28,1.48
6421.0,1.33,1.54
6423.0,1.32,1.4
6425.0,1.38,1.28
6427.0,1.46,1.18
6429.0,1.45,1.23
6431.0,1.49,1.37
6433.0,1.5,1.46
6435.0,1.45,1.46
6437.0,1.43,1.42
6439.0,1.41,1.32
6440.0,1.44,1.27
6443.0,1.44,1.18
6445.0,1.52,1.11
6447.0,1.59,1.06
6449.0,1.62,0.97
6451.0,1.67,1.04
6453.0,1.72,1.19
6455.0,1.68,1.29
6457.0,1.56,1.37
6459.0,1.4,1.4
6461.0,1.43,1.43
6463.0,1.46,1.29
6465.0,1.52,1.27
6467.0,1.54,1.27
6469.0,1.48,1.33
6471.0,1.48,1.37
6473.0,1.46,1.24
6475.0,1.4,1.26
6477.0,1.36,1.34
6479.0,1.25,1.45
6481.0,1.29,1.4
6482.0,1.36,1.43
6484.0,1.45,1.39
6487.0,1.52,1.28
6489.0,1.51,1.33
6491.0,1.55,1.51
6493.0,1.6,1.55
6495.0,1.58,1.45
6497.0,1.48,1.34
6499.0,1.36,1.26
6501.0,1.42,1.37
6503.0,1.41,1.33
6505.0,1.51,1.15
6507.0,1.57,0.98
6509.0,1.59,0.97
6511.0,1.62,1.11
6513.0,1.56,1.18
6515.0,1.48,1.18
6517.0,1.41,1.17
6519.0,1.35,1.24
6521.0,1.34,1.25
6523.0,1.35,1.16
6525.0,1.41,1.18
6526.0,1.48,1.05
6529.0,1.45,1.03
6531.0,1.42,1.04
6533.0,1.53,1.0
6535.0,1.47,0.99
6537.0,1.39,1.09
6539.0,1.32,1.18
6541.0,1.31,1.27
6543.0,1.45,1.24
6545.0,1.53,1.01
6547.0,1.56,0.87
6549.0,1.57,0.93
6551.0,1.6,1.02
6553.0,1.52,1.07
6555.0,1.45,1.04
6557.0,1.4,1.18
6559.0,1.33,1.29
6561.0,1.32,1.31
6563.0,1.36,1.11
6565.0,1.41,1.08
6567.0,1.46,1.12
6568.0,1.46,1.75
6571.0,1.51,2.01
6573.0,1.5,1.93
6575.0,1.49,1.73
6577.0,1.38,1.48
6579.0,1.32,1.64
6581.0,1.32,1.73
6583.0,1.38,1.78
6585.0,1.41,1.73
6587.0,1.4,1.61
6589.0,1.36,1.63
6591.0,1.38,1.73
6593.0,1.34,1.89
6595.0,1.31,1.88
6597.0,1.23,1.5
6599.0,1.15,1.35
6601.0,1.13,1.31
6603.0,1.24,1.25
6605.0,1.31,1.15
6607.0,1.45,1.21
6609.0,1.44,1.26
6611.0,1.48,1.36
6612.0,1.48,1.34
6615.0,1.43,1.39
6617.0,1.35,1.36
6619.0,1.28,1.34
6621.0,1.34,1.31
6623.0,1.37,1.14
6625.0,1.4,1.02
6627.0,1.4,0.96
6629.0,1.35,1.09
6631.0,1.43,1.2
6633.0,1.47,1.09
6635.0,1.46,0.99
6637.0,1.36,1.19
6639.0,1.33,1.29
6641.0,1.34,1.43
6643.0,1.46,1.31
6645.0,1.62,1.01
6647.0,1.74,0.8
6649.0,1.74,1.02
6651.0,1.79,1.14
6653.0,1.74,1.18
6654.0,1.73,1.28
6657.0,1.66,1.42
6659.0,1.56,1.42
6661.0,1.48,1.22
6663.0,1.54,1.16
6665.0,1.58,1.02
6667.0,1.7,0.85
6669.0,1.69,0.74
6671.0,1.72,0.54
6673.0,1.74,0.59
6675.0,1.72,0.8
6677.0,1.62,0.87
6679.0,1.54,0.77
6681.0,1.52,0.93
6683.0,1.53,1.03
6685.0,1.6,1.01
6687.0,1.67,0.9
6689.0,1.67,0.92
6691.0,1.69,0.94
6693.0,1.67,0.86
6695.0,1.67,0.79
6697.0,1.54,0.87
6699.0,1.47,0.88
6701.0,1.49,0.9
6703.0,1.53,1.13
6705.0,1.56,1.26
6707.0,1.6,1.43
6709.0,1.59,1.4
6711.0,1.62,1.42
6713.0,1.61,1.48
6715.0,1.58,1.4
6717.0,1.5,1.53
6719.0,1.44,1.41
6721.0,1.47,1.23
6723.0,1.46,0.94
6725.0,1.53,0.72
6727.0,1.57,0.83
6729.0,1.57,0.71
6731.0,1.65,0.79
6733.0,1.66,0.54
6735.0,1.52,0.25
6737.0,1.35,0.49
6739.0,1.27,2.02
6742.0,1.24,2.88
6743.0,1.31,3.3
6745.0,1.35,3.3
6747.0,1.29,3.3
6749.0,1.31,3.3
6751.0,1.33,3.3
6753.0,1.31,3.3
6755.0,1.24,3.3
6757.0,1.21,3.14
6759.0,1.17,2.85
6761.0,1.16,2.67
6763.0,1.23,2.27
6765.0,1.33,1.72
6767.0,1.4,1.37
6769.0,1.43,1.05
6771.0,1.47,0.81
6773.0,1.5,0.72
6775.0,1.45,0.78
6777.0,1.39,0.97
6779.0,1.36,0.84
6781.0,1.35,0.76
6784.0,1.42,0.58
6785.0,1.53,0.2
6787.0,1.56,0.05
6789.0,1.57,0.01
6791.0,1.58,0.0
6793.0,1.53,0.0
6795.0,1.5,0.0
6797.0,1.43,0.0
6799.0,1.4,0.12
6801.0,1.55,0.38
6803.0,1.69,0.49
6805.0,1.77,0.55
6807.0,1.85,0.37
6809.0,1.84,0.56
6811.0,1.86,0.68
6813.0,1.87,0.3
6815.0,1.8,0.0
6817.0,1.62,0.0
6819.0,1.56,0.13
6821.0,1.5,0.29
6823.0,1.54,0.34
6825.0,1.63,0.19
6828.0,1.6,0.0
6829.0,1.55,0.23
6831.0,1.6,0.75
6833.0,1.56,0.92
6835.0,1.61,1.17
6837.0,1.48,1.33
6839.0,1.41,1.09
6841.0,1.43,1.17
6843.0,1.47,1.18
6845.0,1.54,0.96
6847.0,1.63,0.87
6849.0,1.57,1.61
6851.0,1.57,2.6
6853.0,1.67,3.1
6855.0,1.63,2.95
6857.0,1.58,2.82
6859.0,1.58,2.84
6861.0,1.55,2.88
6863.0,1.61,2.88
6865.0,1.67,2.54
6867.0,1.72,2.17
6870.0,1.72,2.17
6871.0,1.73,2.54
6873.0,1.71,2.96
6875.0,1.71,3.06
6877.0,1.58,3.1
6879.0,1.45,3.06
6881.0,1.46,3.23
6883.0,1.55,3.18
6885.0,1.63,3.02
6887.0,1.63,2.87
6889.0,1.65,2.87
6891.0,1.62,2.76
6893.0,1.69,2.52
6895.0,1.67,2.18
6897.0,1.51,1.68
6899.0,1.48,1.59
6901.0,1.46,1.44
6903.0,1.48,1.26
6905.0,1.56,1.14
6907.0,1.54,1.05
6909.0,1.52,1.16
6912.0,1.54,1.24
6914.0,1.52,1.33
6915.0,1.41,1.37
6917.0,1.3,1.31
6919.0,1.32,1.31
6921.0,1.34,1.15
6923.0,1.3,0.93
6925.0,1.31,0.83
6927.0,1.35,1.0
6929.0,1.43,1.1
6931.0,1.35,1.24
6933.0,1.39,1.44
6935.0,1.34,1.52
6937.0,1.25,1.71
6939.0,1.26,1.93
6941.0,1.27,2.06
6943.0,1.38,1.97
6945.0,1.5,1.95
6947.0,1.5,1.89
6949.0,1.46,1.96
6951.0,1.47,2.06
6953.0,1.44,1.89
6956.0,1.35,1.7
6957.0,1.24,1.62
6959.0,1.25,1.61
6961.0,1.29,1.65
6963.0,1.38,1.77
6965.0,1.45,1.68
6967.0,1.44,1.55
6969.0,1.38,1.69
6971.0,1.39,1.78
6973.0,1.36,1.74
6975.0,1.37,1.68
6977.0,1.23,1.64
6979.0,1.25,1.7
6981.0,1.21,1.84
6983.0,1.27,1.72
6985.0,1.43,1.58
6987.0,1.49,1.42
6989.0,1.52,1.54
6991.0,1.58,1.76
6993.0,1.49,1.8
6995.0,1.39,1.79
6998.0,1.32,2.15
7000.0,1.28,2.38
7001.0,1.25,2.18
7003.0,1.28,1.79
7005.0,1.38,1.72
7007.0,1.34,1.49
7009.0,1.37,1.54
7011.0,1.4,1.67
7013.0,1.38,1.64
7015.0,1.3,1.63
7017.0,1.19,1.68
7019.0,1.15,1.83
7021.0,1.13,1.93
7023.0,1.16,1.85
7025.0,1.23,1.69
7027.0,1.33,1.41
7029.0,1.3,1.35
7031.0,1.3,1.44
7033.0,1.31,1.48
7035.0,1.25,1.39
7037.0,1.11,1.39
7040.0,1.06,1.52
7042.0,1.01,1.39
7044.0,1.07,1.21
7045.0,1.21,1.05
7047.0,1.23,0.8
7049.0,1.25,0.78
7051.0,1.29,0.84
7053.0,1.28,0.82
7055.0,1.26,0.83
7057.0,1.12,0.89
7059.0,1.14,0.76
7061.0,1.17,0.52
7063.0,1.25,0.32
7065.0,1.32,0.29
7067.0,1.33,0.28
7069.0,1.3,0.37
7071.0,1.32,0.3
7073.0,1.4,0.29
7075.0,1.36,0.41
7077.0,1.23,0.6
7079.0,1.21,0.66
7081.0,1.2,0.78
7084.0,1.3,0.78
7086.0,1.42,0.77
7087.0,1.44,0.65
7089.0,1.44,0.83
7091.0,1.49,0.98
7093.0,1.49,0.99
7095.0,1.44,1.09
7097.0,1.29,1.2
7099.0,1.27,1.35
7101.0,1.21,1.38
7103.0,1.22,1.34
7105.0,1.27,1.14
7107.0,1.35,0.93
7109.0,1.38,0.89
7111.0,1.43,0.87
7113.0,1.45,0.94
7115.0,1.39,1.17
7117.0,1.32,1.14
7119.0,1.34,0.9
7121.0,1.44,0.7
7123.0,1.41,0.34
7126.0,1.47,0.44
7128.0,1.5,0.54
7130.0,1.52,0.73
7131.0,1.55,0.71
7133.0,1.58,0.6
7135.0,1.57,0.71
7137.0,1.44,0.89
7139.0,1.43,1.06
7141.0,1.39,0.98
7143.0,1.43,0.81
7145.0,1.52,0.65
7147.0,1.51,0.4
7149.0,1.49,0.44
7151.0,1.45,0.58
7153.0,1.52,0.85
7155.0,1.45,0.9
7157.0,1.33,0.85
7159.0,1.3,0.86
7161.0,1.32,0.77
7163.0,1.39,0.77
7165.0,1.47,0.8
7168.0,1.43,0.87
7170.0,1.35,1.09
7172.0,1.46,1.11
7174.0,1.53,1.27
7175.0,1.54,1.47
7177.0,1.43,1.46
7179.0,1.45,1.61
7181.0,1.37,1.56
7183.0,1.36,1.45
7185.0,1.47,1.28
7187.0,1.49,1.04
7189.0,1.51,1.16
7191.0,1.57,1.23
7193.0,1.53,1.17
7195.0,1.5,1.26
7197.0,1.36,1.42
7199.0,1.31,1.43
7201.0,1.34,1.54
7203.0,1.41,1.68
7205.0,1.52,1.56
7207.0,1.52,1.58
7209.0,1.49,1.72
7212.0,1.57,1.82
7214.0,1.6,2.06
7216.0,1.51,2.2
7218.0,1.37,2.44
7219.0,1.36,2.72
7221.0,1.42,2.73
7223.0,1.46,2.52
7225.0,1.47,2.31
7227.0,1.36,2.1
7229.0,1.3,2.04
7231.0,1.39,2.0
7233.0,1.35,1.88
7235.0,1.33,2.0
7237.0,1.23,1.89
7239.0,1.28,2.17
7241.0,1.28,2.01
7243.0,1.35,1.39
7245.0,1.45,1.23
7247.0,1.46,0.98
7249.0,1.39,0.95
7251.0,1.49,1.05
7254.0,1.46,1.17
7256.0,1.39,1.12
7258.0,1.27,1.22
7260.0,1.29,1.34
7262.0,1.27,1.37
7263.0,1.35,1.12
7265.0,1.45,0.88
7267.0,1.45,0.94
7269.0,1.51,1.07
7271.0,1.48,1.19
7273.0,1.48,1.38
7275.0,1.46,1.48
7277.0,1.31,1.56
7279.0,1.27,1.63
7281.0,1.26,1.49
7283.0,1.35,1.35
7285.0,1.46,1.25
7287.0,1.5,1.21
7289.0,1.48,1.28
7291.0,1.47,1.34
7293.0,1.45,1.43
7296.0,1.41,1.63
7298.0,1.3,1.9
7300.0,1.32,1.99
7302.0,1.27,1.77
7304.0,1.38,1.67
7306.0,1.49,1.71
7307.0,1.5,1.73
7309.0,1.52,1.78
7311.0,1.55,1.95
7313.0,1.49,2.03
7315.0,1.45,2.04
7317.0,1.34,2.06
7319.0,1.32,2.26
7321.0,1.34,2.15
7323.0,1.47,1.89
7325.0,1.55,1.77
7327.0,1.55,1.73
7329.0,1.48,1.8
7331.0,1.6,1.84
7333.0,1.65,1.84
7335.0,1.63,2.2
7337.0,1.51,2.13
7340.0,1.47,2.0
7342.0,1.47,1.85
7344.0,1.52,1.73
7346.0,1.55,1.56
7348.0,1.55,1.35
7350.0,1.55,1.22
7351.0,1.56,1.1
7353.0,1.5,1.14
7355.0,1.46,1.24
7357.0,1.3,1.28
7359.0,1.29,1.32
7361.0,1.28,1.24
7363.0,1.37,1.1
7365.0,1.45,0.99
7367.0,1.43,0.97
7369.0,1.39,1.08
7371.0,1.39,1.13
7373.0,1.46,1.32
7375.0,1.44,1.44
7377.0,1.34,1.45
7379.0,1.33,1.51
7382.0,1.35,1.47
7384.0,1.4,1.45
7386.0,1.51,1.5
7388.0,1.51,1.49
7390.0,1.52,1.63
7392.0,1.51,1.7
7393.0,1.47,1.72
7395.0,1.45,1.77
7397.0,1.3,1.8
7399.0,1.32,1.94
7401.0,1.36,1.9
7403.0,1.44,1.71
7405.0,1.46,1.45
7407.0,1.45,1.38
7409.0,1.48,1.58
7411.0,1.47,1.72
7413.0,1.46,1.58
7415.0,1.43,1.34
7417.0,1.28,1.31
7419.0,1.3,1.32
7421.0,1.3,1.18
7424.0,1.39,1.04
7426.0,1.51,1.08
7428.0,1.52,1.06
7430.0,1.56,1.31
7432.0,1.61,1.54
7434.0,1.61,1.63
7436.0,1.5,1.62
7438.0,1.41,1.58
7439.0,1.4,1.58
7441.0,1.39,1.36
7443.0,1.45,1.15
7445.0,1.49,1.1
7447.0,1.51,1.03
7449.0,1.58,1.14
7451.0,1.58,1.25
7453.0,1.55,1.32
7455.0,1.52,1.26
7457.0,1.41,1.5
7459.0,1.4,1.94
7461.0,1.39,2.07
7463.0,1.48,2.03
7465.0,1.55,1.73
7468.0,1.58,1.56
7470.0,1.62,1.64
7472.0,1.68,1.64
7474.0,1.6,1.65
7476.0,1.55,1.68
7478.0,1.43,1.53
7480.0,1.45,1.53
7482.0,1.44,1.54
7483.0,1.52,1.47
7485.0,1.62,1.5
7487.0,1.61,1.58
7489.0,1.65,1.72
7491.0,1.64,1.95
7493.0,1.61,2.06
7495.0,1.51,2.12
7497.0,1.39,2.26
7499.0,1.42,2.26
7501.0,1.43,2.14
7503.0,1.52,2.05
7505.0,1.59,1.96
7507.0,1.56,1.92
7510.0,1.55,2.16
7512.0,1.65,2.36
7514.0,1.65,2.38
7516.0,1.58,2.3
7518.0,1.45,2.42
7520.0,1.46,2.68
7522.0,1.45,2.52
7524.0,1.53,2.33
7526.0,1.63,2.2
7527.0,1.58,2.13
7529.0,1.55,2.2
7531.0,1.59,2.24
7533.0,1.54,2.29
7535.0,1.5,2.37
7537.0,1.41,2.48
7539.0,1.48,2.6
7541.0,1.43,2.63
7543.0,1.46,2.6
7545.0,1.54,2.51
7547.0,1.56,2.4
7549.0,1.57,2.29
7552.0,1.62,2.34
7554.0,1.62,2.32
7556.0,1.55,2.32
7558.0,1.44,2.32
7560.0,1.48,2.28
7562.0,1.47,2.17
7564.0,1.53,2.21
7566.0,1.6,2.16
7568.0,1.57,2.13
7569.0,1.55,2.15
7571.0,1.54,2.09
7573.0,1.46,1.96
7575.0,1.45,1.99
7577.0,1.27,1.93
7579.0,1.25,1.9
7581.0,1.25,1.71
7583.0,1.34,1.46
7585.0,1.36,1.1
7587.0,1.4,1.05
7589.0,1.4,1.14
7591.0,1.46,1.25
7593.0,1.44,1.42
7596.0,1.38,1.58
7598.0,1.27,1.59
7600.0,1.26,1.67
7602.0,1.26,1.64
7604.0,1.36,1.55
7606.0,1.38,1.29
7608.0,1.36,1.25
7610.0,1.43,1.49
7612.0,1.45,1.5
7613.0,1.43,1.48
7615.0,1.43,1.62
7617.0,1.27,1.69
7619.0,1.31,1.73
7621.0,1.38,1.52
7623.0,1.45,1.27
7625.0,1.49,1.12
7627.0,1.5,1.23
7629.0,1.53,1.17
7631.0,1.56,1.13
7633.0,1.58,1.12
7635.0,1.52,1.17
7638.0,1.39,1.15
7640.0,1.37,1.16
7642.0,1.35,1.13
7644.0,1.42,1.12
7646.0,1.49,1.01
7648.0,1.55,0.92
7650.0,1.58,1.04
7652.0,1.64,1.29
7654.0,1.56,1.43
7656.0,1.53,1.5
7657.0,1.43,1.42
7659.0,1.43,1.42
7661.0,1.45,1.32
7663.0,1.49,1.14
7665.0,1.57,0.93
7667.0,1.51,0.84
7669.0,1.54,0.75
7671.0,1.46,0.59
7673.0,1.48,0.89
7675.0,1.44,1.02
7677.0,1.32,0.98
7680.0,1.33,0.89
7682.0,1.34,0.65
7684.0,1.41,0.5
7686.0,1.48,0.57
7688.0,1.45,0.59
7690.0,1.46,0.51
7692.0,1.55,0.51
7694.0,1.5,0.59
7696.0,1.4,0.64
7698.0,1.29,0.69
7700.0,1.29,0.73
7701.0,1.29,0.54
7703.0,1.37,0.98
7705.0,1.54,1.12
7707.0,1.53,0.8
7709.0,1.55,0.65
7711.0,1.59,0.65
7713.0,1.57,0.64
7715.0,1.49,0.86
7717.0,1.39,0.84
7719.0,1.43,0.94
7721.0,1.43,0.6
7724.0,1.46,0.37
7726.0,1.55,0.34
7728.0,1.55,0.37
7730.0,1.52,0.45
7732.0,1.51,0.64
7734.0,1.56,1.12
7736.0,1.44,1.3
7738.0,1.34,1.42
7740.0,1.37,1.55
7742.0,1.41,1.38
7744.0,1.5,1.5
7745.0,1.57,1.63
7747.0,1.58,1.65
7749.0,1.61,1.69
7751.0,1.58,1.66
7753.0,1.53,1.68
7755.0,1.47,1.69
7757.0,1.42,1.75
7759.0,1.45,1.61
7761.0,1.52,1.4
7763.0,1.63,1.34
7766.0,1.69,1.38
7768.0,1.75,1.33
7770.0,1.85,1.3
7772.0,1.85,1.58
7774.0,1.79,1.48
7776.0,1.75,1.1
7778.0,1.58,0.91
7780.0,1.55,1.5
7782.0,1.56,1.77
7784.0,1.6,1.73
7786.0,1.64,1.61
7788.0,1.62,1.42
7789.0,1.64,1.4
7791.0,1.67,1.5
7793.0,1.63,1.32
7795.0,1.53,1.14
7797.0,1.35,0.81
7799.0,1.32,0.6
7801.0,1.41,0.37
7803.0,1.56,0.62
7805.0,1.5,0.61
7808.0,1.47,0.72
7810.0,1.46,0.65
7812.0,1.45,0.42
7814.0,1.34,0.31
7816.0,1.28,0.67
7818.0,1.2,0.94
7820.0,1.21,1.16
7822.0,1.27,1.16
7824.0,1.34,1.26
7826.0,1.42,1.26
7828.0,1.43,1.14
7830.0,1.45,0.93
7832.0,1.49,0.94
7833.0,1.48,0.99
7835.0,1.44,1.27
7837.0,1.32,1.39
7839.0,1.32,1.39
7841.0,1.32,1.29
7843.0,1.39,1.08
7845.0,1.43,0.92
7847.0,1.42,0.92
7849.0,1.49,0.92
7852.0,1.51,0.87
7854.0,1.48,1.17
7856.0,1.39,1.3
7858.0,1.35,1.27
7860.0,1.44,1.33
7862.0,1.51,1.32
7864.0,1.54,1.32
7866.0,1.56,1.72
7868.0,1.48,2.06
7870.0,1.5,2.1
7872.0,1.55,2.08
7874.0,1.56,2.1
7875.0,1.49,2.05
7877.0,1.4,1.85
7879.0,1.45,1.48
7881.0,1.43,1.75
7883.0,1.49,1.59
7885.0,1.61,1.32
7887.0,1.62,1.3
7889.0,1.68,1.41
7891.0,1.65,1.38
7894.0,1.6,1.38
7896.0,1.53,1.07
7898.0,1.41,0.98
7900.0,1.41,1.01
7902.0,1.37,0.99
7904.0,1.43,0.94
7906.0,1.54,0.85
7908.0,1.55,0.91
7910.0,1.55,1.03
7912.0,1.53,1.31
7914.0,1.52,1.36
7916.0,1.47,1.35
7918.0,1.41,1.19
7919.0,1.37,1.27
7921.0,1.35,1.38
7923.0,1.4,1.28
7925.0,1.44,1.37
7927.0,1.37,1.53
7929.0,1.39,1.85
7931.0,1.42,2.15
7933.0,1.35,2.3
7936.0,1.26,2.26
7938.0,1.15,2.09
7940.0,1.18,2.03
7942.0,1.22,2.22
7944.0,1.33,1.95
7946.0,1.44,1.74
7948.0,1.42,1.75
7950.0,1.43,1.84
7952.0,1.45,2.35
7954.0,1.39,2.5
7956.0,1.34,2.63
7958.0,1.25,2.82
7960.0,1.25,2.57
7962.0,1.25,2.14
7963.0,1.39,2.15
7965.0,1.51,2.22
7967.0,1.54,2.25
7969.0,1.51,2.32
7971.0,1.49,2.26
7973.0,1.45,2.15
7975.0,1.4,2.16
7977.0,1.32,2.21
7980.0,1.32,2.17
7982.0,1.39,2.07
7984.0,1.44,2.1
7986.0,1.51,2.23
7988.0,1.52,2.43
7990.0,1.5,2.37
7992.0,1.48,2.24
7994.0,1.48,2.34
7996.0,1.4,2.42
7998.0,1.32,2.42
8000.0,1.33,2.51
8002.0,1.4,2.49
8004.0,1.54,2.43
8006.0,1.55,2.14
8007.0,1.54,2.04
8009.0,1.53,2.25
8011.0,1.53,2.7
8013.0,1.47,2.62
8015.0,1.38,2.46
8017.0,1.3,2.33
8019.0,1.29,2.1
8022.0,1.28,2.0
8024.0,1.37,1.96
8026.0,1.47,1.78
8028.0,1.51,1.67
8030.0,1.57,1.73
8032.0,1.62,1.96
8034.0,1.56,2.02
8036.0,1.46,2.02
8038.0,1.38,1.97
8040.0,1.35,1.94
8042.0,1.31,1.87
8044.0,1.39,2.06
8046.0,1.51,2.04
8048.0,1.5,1.92
8049.0,1.48,1.76
8051.0,1.45,1.51
8053.0,1.38,1.35
8055.0,1.33,1.4
8057.0,1.26,1.41
8059.0,1.28,1.42
8061.0,1.31,1.39
8064.0,1.34,1.46
8066.0,1.36,1.41
8068.0,1.36,1.44
8070.0,1.35,1.58
8072.0,1.34,1.65
8074.0,1.34,1.57
8076.0,1.3,1.4
8078.0,1.22,1.15
8080.0,1.26,1.14
8082.0,1.33,1.21
8084.0,1.41,1.29
8086.0,1.49,1.25
8088.0,1.52,1.31
8090.0,1.53,1.4
8092.0,1.56,1.37
8093.0,1.56,1.25
8095.0,1.49,1.03
8097.0,1.42,0.74
8099.0,1.38,0.6
8101.0,1.42,0.51
8103.0,1.52,0.34
8105.0,1.55,0.0
8108.0,1.56,0.0
8110.0,1.57,0.0
8112.0,1.52,0.0
8114.0,1.49,0.0
8116.0,1.35,0.0
8118.0,1.27,0.0
8120.0,1.23,0.05
8122.0,1.3,0.0
8124.0,1.33,0.0
8126.0,1.39,0.0
8128.0,1.33,0.0
8130.0,1.34,0.06
8132.0,1.44,0.36
8134.0,1.44,0.62
8135.0,1.34,0.68
8137.0,1.29,0.85
8139.0,1.3,0.97
8141.0,1.38,1.06
8143.0,1.5,0.96
8145.0,1.53,0.88
8147.0,1.51,1.09
8150.0,1.52,1.21
8152.0,1.51,1.27
8154.0,1.44,1.39
8156.0,1.33,1.4
8158.0,1.27,1.42
8160.0,1.33,1.52
8162.0,1.39,1.71
8164.0,1.43,1.61
8166.0,1.49,1.55
8168.0,1.54,1.76
8170.0,1.53,2.07
8172.0,1.52,2.08
8174.0,1.5,2.0
8176.0,1.38,1.98
8178.0,1.29,1.97
8179.0,1.29,1.9
8181.0,1.28,1.77
8183.0,1.44,1.71
8185.0,1.5,1.43
8187.0,1.52,1.59
8189.0,1.55,1.79
8192.0,1.5,1.76
8194.0,1.45,1.76
8196.0,1.33,1.61
8198.0,1.27,1.31
8200.0,1.3,1.19
8202.0,1.37,1.14
8204.0,1.42,1.02
8206.0,1.43,0.81
8208.0,1.39,0.8
8210.0,1.41,0.85
8212.0,1.46,0.95
8214.0,1.43,1.11
8216.0,1.34,1.58
8218.0,1.3,1.8
8220.0,1.24,1.87
8222.0,1.26,1.89
8223.0,1.39,1.82
8225.0,1.48,1.64
8227.0,1.51,1.72
8229.0,1.55,1.65
8231.0,1.53,1.68
8233.0,1.51,1.88
8236.0,1.43,2.01
8238.0,1.37,2.07
8240.0,1.36,2.14
8242.0,1.45,2.11
8244.0,1.5,1.99
8246.0,1.55,1.81
8248.0,1.55,1.77
8250.0,1.53,1.92
8252.0,1.54,2.05
8254.0,1.52,2.08
8256.0,1.37,2.01
8258.0,1.26,2.03
8260.0,1.23,2.15
8262.0,1.26,2.0
8264.0,1.41,1.83
8265.0,1.45,1.63
8267.0,1.42,1.76
8269.0,1.45,1.88
8271.0,1.42,1.82
8273.0,1.36,1.86
8275.0,1.27,1.87
8278.0,1.21,1.7
8280.0,1.19,1.56
8282.0,1.28,1.57
8284.0,1.39,1.63
8286.0,1.47,1.43
8288.0,1.47,1.36
8290.0,1.48,1.45
8292.0,1.48,1.48
8294.0,1.46,1.43
8296.0,1.33,1.34
8298.0,1.3,1.24
8300.0,1.25,1.18
8302.0,1.31,1.14
8304.0,1.42,1.16
8306.0,1.47,1.12
8308.0,1.5,1.23
8309.0,1.52,1.25
8311.0,1.5,1.3
8313.0,1.43,1.41
8315.0,1.31,1.68
8317.0,1.25,1.76
8320.0,1.26,1.68
8322.0,1.35,1.53
8324.0,1.4,1.37
8326.0,1.41,1.26
8328.0,1.38,1.26
8330.0,1.44,1.18
8332.0,1.45,1.01
8334.0,1.51,1.21
8336.0,1.38,1.42
8338.0,1.3,1.71
8340.0,1.31,1.81
8342.0,1.39,1.75
8344.0,1.48,1.64
8346.0,1.54,1.54
8348.0,1.51,1.48
8350.0,1.55,1.5
8352.0,1.59,1.5
8353.0,1.53,1.47
8355.0,1.39,1.54
8357.0,1.35,1.58
8359.0,1.38,1.58
8361.0,1.45,1.61
8364.0,1.54,1.58
8366.0,1.61,1.44
8368.0,1.63,1.55
8370.0,1.65,1.85
8372.0,1.58,1.9
8374.0,1.61,2.04
8376.0,1.45,2.02
8378.0,1.39,1.79
8380.0,1.4,1.62
8382.0,1.4,1.52
8384.0,1.49,1.29
8386.0,1.55,1.0
8388.0,1.56,0.95
8390.0,1.61,1.06
8392.0,1.64,1.23
8394.0,1.57,1.27
8395.0,1.46,1.23
8397.0,1.39,1.26
8399.0,1.39,1.29
8401.0,1.49,1.15
8403.0,1.56,0.96
8406.0,1.59,0.74
8408.0,1.59,0.7
8410.0,1.59,0.65
8412.0,1.59,0.6
8414.0,1.48,0.66
8416.0,1.36,0.8
8418.0,1.37,0.84
8420.0,1.41,0.83
8422.0,1.44,0.74
8424.0,1.54,0.61
8426.0,1.53,0.45
8428.0,1.53,0.5
8430.0,1.55,0.63
8432.0,1.61,0.78
8434.0,1.54,0.65
8436.0,1.39,0.51
8438.0,1.36,0.61
8439.0,1.37,0.73
8441.0,1.36,0.68
8443.0,1.45,0.62
8445.0,1.54,0.52
8448.0,1.51,0.57
8450.0,1.52,0.7
8452.0,1.48,0.87
8454.0,1.46,0.9
8456.0,1.4,0.92
8458.0,1.35,0.95
8460.0,1.35,0.91
8462.0,1.41,0.87
8464.0,1.49,0.85
8466.0,1.5,0.92
8468.0,1.54,0.91
8470.0,1.54,1.05
8472.0,1.53,1.08
8474.0,1.45,1.05
8476.0,1.33,1.24
8478.0,1.3,1.27
8480.0,1.26,1.2
8481.0,1.35,1.22
8483.0,1.43,1.29
8485.0,1.48,1.39
8487.0,1.48,1.62
8489.0,1.59,1.83
8492.0,1.54,1.92
8494.0,1.47,1.81
8496.0,1.42,1.84
8498.0,1.4,2.0
8500.0,1.38,2.1
8502.0,1.41,2.08
8504.0,1.5,1.9
8506.0,1.51,1.6
8508.0,1.54,1.66
8510.0,1.52,1.74
8512.0,1.47,1.84
8514.0,1.39,1.93
8516.0,1.3,1.96
8518.0,1.29,1.88
8520.0,1.31,1.82
8522.0,1.39,1.74
8524.0,1.5,1.73
8525.0,1.52,1.56
8527.0,1.44,1.41
8529.0,1.54,1.56
8531.0,1.52,1.73
8534.0,1.5,1.76
8536.0,1.43,1.71
8538.0,1.43,1.67
8540.0,1.4,1.72
8542.0,1.41,1.6
8544.0,1.56,1.37
8546.0,1.58,1.25
8548.0,1.52,1.35
8550.0,1.58,1.45
8552.0,1.53,1.59
8554.0,1.45,1.56
8556.0,1.31,1.55
8558.0,1.27,1.38
8560.0,1.28,1.33
8562.0,1.33,1.35
8564.0,1.4,1.27
8566.0,1.46,1.43
8567.0,1.45,1.54
8569.0,1.48,1.45
8571.0,1.45,1.35
8573.0,1.44,1.37
8576.0,1.3,1.38
8578.0,1.29,1.6
8580.0,1.31,1.57
8582.0,1.35,1.4
8584.0,1.42,1.35
8586.0,1.47,1.47
8588.0,1.52,1.69
8590.0,1.57,1.61
8592.0,1.54,1.36
8594.0,1.5,1.38
8596.0,1.33,1.63
8598.0,1.25,1.49
8600.0,1.26,1.34
8602.0,1.34,1.04
8604.0,1.39,0.97
8606.0,1.45,1.05
8608.0,1.47,1.02
8610.0,1.42,1.1
8611.0,1.43,1.29
8613.0,1.48,1.15
8615.0,1.41,1.03
8617.0,1.43,1.06
8620.0,1.39,1.23
8622.0,1.39,1.3
8624.0,1.48,1.26
8626.0,1.53,1.4
8628.0,1.51,1.62
8630.0,1.53,1.69
8632.0,1.51,1.61
8634.0,1.5,1.45
8636.0,1.39,1.47
8638.0,1.39,1.4
8640.0,1.4,1.37
8642.0,1.48,1.45
8644.0,1.55,1.45
8646.0,1.54,1.35
8648.0,1.61,1.42
8650.0,1.64,1.51
8652.0,1.67,1.88
8654.0,1.64,2.2
8655.0,1.48,2.27
8657.0,1.45,2.07
8659.0,1.4,1.99
8662.0,1.45,2.26
8664.0,1.6,2.43
8666.0,1.62,2.35
8668.0,1.55,2.28
8670.0,1.59,2.3
8672.0,1.6,2.45
8674.0,1.54,2.72
8676.0,1.41,2.91
8678.0,1.39,2.7
8680.0,1.36,2.67
8682.0,1.45,2.5
8684.0,1.49,2.41
8686.0,1.51,2.41
8688.0,1.52,2.47
8690.0,1.59,2.56
8692.0,1.6,2.89
8694.0,1.52,2.9
8696.0,1.38,2.97
8697.0,1.4,3.01
8699.0,1.42,2.93
8701.0,1.49,2.78
8704.0,1.64,2.39
8706.0,1.6,2.07
8708.0,1.56,2.06
8710.0,1.6,1.99
8712.0,1.62,2.15
8714.0,1.6,2.41
8716.0,1.53,2.08
8718.0,1.49,1.81
8720.0,1.54,1.75
8722.0,1.59,1.62
8724.0,1.68,2.02
8726.0,1.67,1.98
8728.0,1.69,1.85
8730.0,1.7,1.85
8732.0,1.63,1.79
8734.0,1.52,1.48
8736.0,1.38,1.27
8738.0,1.42,0.95
8740.0,1.4,0.82
8741.0,1.46,0.82
8743.0,1.57,0.56
8745.0,1.6,0.43
8748.0,1.51,0.35
8750.0,1.64,0.93
8752.0,1.59,1.3
8754.0,1.54,1.14
8756.0,1.42,0.82
8758.0,1.41,0.58
8760.0,1.4,0.37
8762.0,1.49,0.19
8764.0,1.57,0.07
8766.0,1.56,0.0
8768.0,1.59,0.0
8770.0,1.54,0.16
8772.0,1.47,0.72
8774.0,1.44,0.8
8776.0,1.31,1.57
8778.0,1.34,2.37
8780.0,1.32,2.27
8782.0,1.38,2.58
8784.0,1.5,2.25
8785.0,1.49,1.84
8787.0,1.49,2.03
8790.0,1.53,2.54
8792.0,1.5,2.45
8794.0,1.44,2.09
8796.0,1.35,1.7
8798.0,1.33,1.12
8800.0,1.28,0.19
8802.0,1.3,0.0
8804.0,1.4,0.0
8806.0,1.43,0.0
8808.0,1.49,0.0
8810.0,1.49,0.0
8812.0,1.41,0.0
8814.0,1.41,0.0
8816.0,1.31,0.0
8818.0,1.33,0.0
8820.0,1.32,0.0
8822.0,1.42,0.0
8824.0,1.56,0.0
8826.0,1.55,0.05
8828.0,1.54,0.19
8829.0,1.5,0.33
8832.0,1.49,0.44
8834.0,1.48,0.55
8836.0,1.36,0.7
8838.0,1.34,0.86
8840.0,1.33,0.9
8842.0,1.43,0.95
8844.0,1.47,1.04
8846.0,1.5,1.87
8848.0,1.54,2.12
8850.0,1.55,2.46
8852.0,1.5,2.83
8854.0,1.43,3.01
8856.0,1.31,3.3
8858.0,1.34,3.3
8860.0,1.38,3.3
8862.0,1.46,3.3
8864.0,1.48,3.3
8866.0,1.45,3.3
8868.0,1.46,3.3
8870.0,1.4,3.3
8871.0,1.39,3.3
8873.0,1.39,3.23
8876.0,1.28,2.66
8878.0,1.29,2.27
8880.0,1.29,1.96
8882.0,1.4,1.65
8884.0,1.59,1.41
8886.0,1.66,1.33
8888.0,1.71,1.84
8890.0,1.74,2.23
8892.0,1.71,2.6
8894.0,1.64,2.69
8896.0,1.48,2.54
8898.0,1.48,2.32
8900.0,1.47,2.21
8902.0,1.55,2.28
8904.0,1.6,2.14
8906.0,1.56,2.12
8908.0,1.62,3.2
8910.0,1.55,3.3
8912.0,1.5,3.26
8914.0,1.44,3.04
8915.0,1.29,2.75
8918.0,1.3,2.45
8920.0,1.29,2.16
8922.0,1.38,2.1
8924.0,1.48,2.08
8926.0,1.46,1.88
8928.0,1.43,1.65
8930.0,1.51,1.83
8932.0,1.51,2.02
8934.0,1.43,2.31
8936.0,1.32,2.42
8938.0,1.35,2.44
8940.0,1.3,2.37
8942.0,1.34,2.29
8944.0,1.48,2.04
8946.0,1.46,2.0
8948.0,1.46,2.03
8950.0,1.45,2.03
8952.0,1.44,1.95
8954.0,1.4,1.8
8956.0,1.29,1.53
8958.0,1.35,1.26
8960.0,1.3,1.36
8962.0,1.4,1.26
8964.0,1.5,0.81
8966.0,1.53,0.39
8968.0,1.51,0.4
8970.0,1.56,0.86
8972.0,1.58,0.9
8974.0,1.53,1.15
8976.0,1.39,2.13
8978.0,1.39,2.66
8980.0,1.35,2.79
8982.0,1.41,2.86
8984.0,1.49,2.76
8986.0,1.47,2.62
8988.0,1.49,2.61
8990.0,1.55,2.67
8992.0,1.52,2.7
8994.0,1.5,2.65
8996.0,1.37,2.46
8998.0,1.38,2.36
9000.0,1.35,2.1
9001.0,1.43,1.73
9004.0,1.52,1.37
9006.0,1.54,1.05
9008.0,1.57,1.18
9010.0,1.58,1.33
9012.0,1.5,1.53
9014.0,1.47,1.56
9016.0,1.31,1.44
9018.0,1.31,1.43
9020.0,1.33,1.48
9022.0,1.4,1.74
9024.0,1.45,1.73
9026.0,1.43,1.54
9028.0,1.45,1.64
9030.0,1.53,1.73
9032.0,1.48,1.61
9034.0,1.43,1.55
9036.0,1.3,1.57
9038.0,1.27,1.54
9040.0,1.23,1.53
9042.0,1.33,1.56
9044.0,1.38,1.44
9046.0,1.4,1.43
9048.0,1.43,1.65
9050.0,1.48,1.85
9052.0,1.5,1.64
9054.0,1.45,1.55
9056.0,1.34,1.48
9058.0,1.33,1.35
9060.0,1.35,1.2
9062.0,1.39,1.12
9064.0,1.48,1.01
9066.0,1.46,0.75
9068.0,1.5,0.53
9070.0,1.47,0.3
9072.0,1.43,0.26
9074.0,1.44,0.32
9076.0,1.32,0.24
9078.0,1.3,0.45
9080.0,1.34,0.4
9082.0,1.43,0.56
9084.0,1.48,0.85
9086.0,1.46,1.1
9089.0,1.57,1.23
9090.0,1.54,1.26
9092.0,1.5,1.3
9094.0,1.48,1.5
9096.0,1.29,1.61
9098.0,1.3,1.57
9100.0,1.3,1.33
9102.0,1.36,1.09
9104.0,1.45,1.0
9106.0,1.46,1.02
9108.0,1.52,1.22
9110.0,1.53,1.39
9112.0,1.56,1.53
9114.0,1.45,1.47
9116.0,1.31,1.38
9118.0,1.33,1.45
9120.0,1.31,1.37
9122.0,1.4,1.45
9124.0,1.51,1.53
9126.0,1.49,1.58
9128.0,1.51,1.61
9131.0,1.54,1.45
9133.0,1.53,1.22
9134.0,1.46,1.14
9136.0,1.31,1.0
9138.0,1.31,1.15
9140.0,1.24,1.07
9142.0,1.25,0.91
9144.0,1.36,0.8
9146.0,1.37,0.75
9148.0,1.41,0.76
9150.0,1.47,0.72
9152.0,1.44,0.84
9154.0,1.4,0.89
9156.0,1.3,0.95
9158.0,1.32,0.99
9160.0,1.27,0.67
9162.0,1.32,0.46
9164.0,1.43,0.26
9166.0,1.45,0.26
9168.0,1.47,0.25
9170.0,1.51,0.07
9172.0,1.54,0.0
9175.0,1.49,0.0
9177.0,1.31,0.0
9178.0,1.26,0.0
9180.0,1.25,0.0
9182.0,1.33,0.0
9184.0,1.43,0.0
9186.0,1.44,0.0
9188.0,1.4,0.0
9190.0,1.45,0.0
9192.0,1.35,0.0
9194.0,1.31,0.0
9196.0,1.21,0.0
9198.0,1.22,0.0
9200.0,1.26,0.0
9202.0,1.37,0.0
9204.0,1.5,0.0
9206.0,1.51,0.0
9208.0,1.51,0.0
9210.0,1.55,0.31
9212.0,1.48,0.6
9214.0,1.39,0.57
9217.0,1.26,0.52
9219.0,1.32,0.59
9221.0,1.33,0.49
9222.0,1.41,0.45
9224.0,1.5,0.55
9226.0,1.47,0.72
9228.0,1.51,0.94
9230.0,1.47,0.97
9232.0,1.46,0.89
9234.0,1.4,0.86
9236.0,1.26,0.96
9238.0,1.26,0.96
9240.0,1.29,0.93
9242.0,1.4,1.1
9244.0,1.47,1.25
9246.0,1.47,1.4
9248.0,1.49,1.53
9250.0,1.48,1.75
9252.0,1.47,1.98
9254.0,1.47,2.17
9256.0,1.35,2.24
9259.0,1.37,2.31
9261.0,1.45,2.26
9263.0,1.51,2.18
9265.0,1.59,1.97
9266.0,1.58,2.0
9268.0,1.62,1.95
9270.0,1.54,1.81
9272.0,1.53,1.84
9274.0,1.5,1.87
9276.0,1.32,1.69
9278.0,1.26,1.74
9280.0,1.37,1.83
9282.0,1.38,1.73
9284.0,1.46,1.65
9286.0,1.48,1.76
9288.0,1.55,1.79
9290.0,1.53,1.62
9292.0,1.45,1.46
9294.0,1.37,1.5
9296.0,1.24,1.4
9298.0,1.29,1.4
9300.0,1.29,1.43
9303.0,1.35,1.29
9305.0,1.4,1.43
9307.0,1.39,1.72
9309.0,1.41,1.85
9310.0,1.42,1.85
9312.0,1.45,1.93
9314.0,1.41,2.05
9316.0,1.31,2.06
9318.0,1.36,2.11
9320.0,1.41,2.02
9322.0,1.45,1.96
9324.0,1.55,1.8
9326.0,1.57,1.67
9328.0,1.56,1.47
9330.0,1.62,1.46
9332.0,1.64,1.65
9334.0,1.54,1.61
9336.0,1.44,1.51
9338.0,1.48,1.51
9340.0,1.5,1.41
9342.0,1.59,1.15
9345.0,1.69,0.94
9347.0,1.66,0.99
9349.0,1.67,1.0
9351.0,1.69,0.92
9353.0,1.7,0.98
9354.0,1.58,1.23
9356.0,1.45,1.47
9358.0,1.46,1.48
9360.0,1.48,1.38
9362.0,1.55,1.33
9364.0,1.62,1.28
9366.0,1.63,1.33
9368.0,1.62,1.17
9370.0,1.61,1.13
9372.0,1.51,1.32
9374.0,1.4,1.57
9376.0,1.25,1.74
9378.0,1.27,1.58
9380.0,1.31,1.44
9382.0,1.45,1.28
9384.0,1.46,1.12
9387.0,1.44,1.17
9389.0,1.45,1.3
9391.0,1.47,1.28
9393.0,1.37,1.23
9395.0,1.29,1.35
9397.0,1.19,1.33
9398.0,1.2,1.44
9400.0,1.24,1.54
9402.0,1.28,1.66
9404.0,1.37,1.43
9406.0,1.4,1.31
9408.0,1.44,1.32
9410.0,1.45,1.3
9412.0,1.41,1.31
9414.0,1.34,1.48
9416.0,1.28,1.74
9418.0,1.32,1.72
9420.0,1.32,1.52
9422.0,1.43,1.56
9424.0,1.54,1.6
9426.0,1.47,1.56
9428.0,1.48,1.64
9431.0,1.46,1.85
9433.0,1.4,2.0
9435.0,1.42,2.18
9437.0,1.32,2.22
9439.0,1.32,2.15
9440.0,1.33,1.99
9442.0,1.43,1.91
9444.0,1.52,1.8
9446.0,1.51,1.61
9448.0,1.52,1.31
9450.0,1.53,1.42
9452.0,1.51,1.47
9454.0,1.42,1.49
9456.0,1.3,1.59
9458.0,1.28,1.69
9460.0,1.31,1.56
9462.0,1.41,1.36
9464.0,1.47,1.54
9466.0,1.44,1.84
9468.0,1.5,1.85
9470.0,1.52,1.75
9473.0,1.48,1.66
9475.0,1.44,1.83
9477.0,1.35,1.82
9479.0,1.33,1.81
9481.0,1.41,1.89
9483.0,1.45,1.86
9484.0,1.51,1.69
9486.0,1.52,1.73
9488.0,1.51,1.84
9490.0,1.53,1.88
9492.0,1.54,1.89
9494.0,1.46,2.07
9496.0,1.34,2.57
9498.0,1.37,2.79
9500.0,1.4,2.65
9502.0,1.49,2.49
9504.0,1.58,2.18
9506.0,1.53,3.15
9508.0,1.56,3.3
9510.0,1.56,3.3
9512.0,1.51,3.3
9515.0,1.43,3.3
9517.0,1.35,3.3
9519.0,1.34,3.24
9521.0,1.39,3.03
9523.0,1.47,2.71
9525.0,1.58,2.22
9527.0,1.57,1.88
9528.0,1.59,1.72
9530.0,1.64,1.63
9532.0,1.59,1.73
9534.0,1.57,1.82
9536.0,1.43,1.75
9538.0,1.4,1.73
9540.0,1.42,1.55
9542.0,1.5,1.41
9544.0,1.59,1.32
9546.0,1.58,1.38
9548.0,1.65,1.44
9550.0,1.65,1.25
9552.0,1.57,1.12
9554.0,1.52,1.28
9556.0,1.39,1.4
9559.0,1.38,1.2
9561.0,1.43,1.01
9563.0,1.55,1.01
9565.0,1.6,1.07
9567.0,1.6,1.1
9569.0,1.61,1.16
9571.0,1.52,1.14
9572.0,1.49,1.07
9574.0,1.42,0.99
9576.0,1.28,1.12
9578.0,1.26,1.26
9580.0,1.34,1.07
9582.0,1.45,0.71
9584.0,1.53,0.52
9586.0,1.57,0.6
9588.0,1.62,0.63
9590.0,1.62,0.46
9592.0,1.58,0.61
9594.0,1.5,0.83
9596.0,1.4,1.03
9598.0,1.33,1.02
9601.0,1.35,0.84
9603.0,1.42,0.74
9605.0,1.5,0.48
9607.0,1.5,0.45
9609.0,1.52,0.63
9611.0,1.5,0.75
9613.0,1.48,0.83
9615.0,1.38,1.13
9616.0,1.27,1.26
9618.0,1.28,1.41
9620.0,1.33,1.51
9622.0,1.45,1.66
9624.0,1.57,1.4
9626.0,1.58,1.23
9628.0,1.6,1.4
9630.0,1.65,1.6
9632.0,1.57,1.86
9634.0,1.46,2.4
9636.0,1.34,2.57
9638.0,1.33,2.34
9640.0,1.33,2.14
9643.0,1.38,1.91
9645.0,1.48,1.62
9647.0,1.5,1.55
9649.0,1.52,1.53
9651.0,1.49,1.93
9653.0,1.5,2.21
9655.0,1.4,2.25
9657.0,1.34,2.43
9658.0,1.37,2.6
9660.0,1.41,2.67
9662.0,1.45,2.4
9664.0,1.53,2.11
9666.0,1.55,2.0
9668.0,1.57,1.67
9670.0,1.6,1.8
9672.0,1.54,2.06
9674.0,1.5,2.49
9676.0,1.41,2.75
9678.0,1.43,2.95
9680.0,1.49,2.94
9682.0,1.6,2.8
9684.0,1.65,2.83
9687.0,1.65,2.95
9689.0,1.68,3.15
9691.0,1.73,3.24
9693.0,1.65,2.89
9695.0,1.62,2.59
9697.0,1.52,2.25
9699.0,1.51,2.28
9701.0,1.49,2.54
9702.0,1.55,2.24
9704.0,1.65,2.07
9706.0,1.66,2.01
9708.0,1.68,2.11
9710.0,1.71,2.18
9712.0,1.62,2.15
9714.0,1.53,2.01
9716.0,1.45,1.93
9718.0,1.45,1.81
9720.0,1.46,1.5
9722.0,1.54,1.32
9724.0,1.58,1.16
9726.0,1.58,1.12
9729.0,1.58,1.21
9731.0,1.58,1.13
9733.0,1.5,0.92
9735.0,1.49,0.84
9737.0,1.45,0.62
9739.0,1.42,0.23
9741.0,1.44,0.33
9743.0,1.55,0.44
9744.0,1.55,0.34
9746.0,1.56,0.12
9748.0,1.59,0.18
9750.0,1.57,0.63
9752.0,1.49,0.66
9754.0,1.49,0.67
9756.0,1.38,0.8
9758.0,1.33,0.94
9760.0,1.38,0.72
9762.0,1.47,0.77
9764.0,1.53,0.96
9766.0,1.45,1.05
9768.0,1.5,1.12
9771.0,1.46,1.15
9773.0,1.43,1.21
9775.0,1.35,1.38
9777.0,1.28,1.39
9779.0,1.29,1.44
9781.0,1.33,1.12
9783.0,1.43,1.0
9785.0,1.53,0.61
9787.0,1.49,0.58
9788.0,1.52,0.71
9790.0,1.44,0.69
9792.0,1.44,0.61
9794.0,1.37,0.48
9796.0,1.3,0.43
9798.0,1.29,0.7
9800.0,1.4,1.06
9802.0,1.42,1.24
9804.0,1.48,1.27
9806.0,1.49,1.45
9808.0,1.53,1.55
9810.0,1.53,1.55
9812.0,1.5,1.64
9815.0,1.41,1.55
9817.0,1.33,1.3
9819.0,1.3,1.09
9821.0,1.36,1.11
9823.0,1.43,1.12
9825.0,1.46,0.84
9827.0,1.45,0.87
9829.0,1.55,1.03
9831.0,1.52,1.35
9832.0,1.5,1.44
9834.0,1.37,1.53
9836.0,1.29,1.61
9838.0,1.3,1.44
9840.0,1.33,1.41
9842.0,1.34,1.43
9844.0,1.41,1.38
9846.0,1.41,1.36
9848.0,1.46,1.37
9850.0,1.47,1.3
9852.0,1.49,1.46
9854.0,1.37,1.58
9857.0,1.27,1.78
9859.0,1.29,1.83
9861.0,1.35,1.64
9863.0,1.48,1.65
9865.0,1.58,1.65
9867.0,1.6,1.71
9869.0,1.62,1.95
9871.0,1.55,2.01
9873.0,1.47,2.1
9874.0,1.38,2.21
9876.0,1.3,2.18
9878.0,1.32,2.13
9880.0,1.37,1.99
9882.0,1.49,1.84
9884.0,1.56,1.73
9886.0,1.56,1.6
9888.0,1.6,1.69
9890.0,1.6,1.72
9892.0,1.55,1.67
9894.0,1.48,1.59
9896.0,1.38,1.36
9899.0,1.36,1.2
9901.0,1.4,1.16
9903.0,1.52,1.18
9905.0,1.53,1.23
9907.0,1.55,1.29
9909.0,1.58,1.38
9911.0,1.6,1.43
9913.0,1.49,1.35
9915.0,1.37,1.3
9917.0,1.35,1.32
9918.0,1.36,1.26
9920.0,1.4,1.27
9922.0,1.43,1.43
9924.0,1.49,1.52
9926.0,1.54,1.92
9928.0,1.6,2.07
9930.0,1.61,2.02
9932.0,1.53,1.88
9934.0,1.42,1.85
9936.0,1.34,1.77
9938.0,1.3,1.65
9940.0,1.32,1.27
9943.0,1.45,1.07
9945.0,1.46,1.18
9947.0,1.47,1.4
9949.0,1.51,1.46
9951.0,1.53,1.48
9953.0,1.5,1.42
9955.0,1.44,1.35
9957.0,1.41,1.35
9959.0,1.4,1.33
9961.0,1.44,1.13
9962.0,1.55,0.96
9964.0,1.55,0.85
9966.0,1.58,0.94
9968.0,1.63,1.06
9970.0,1.53,1.01
9972.0,1.42,1.15
9974.0,1.34,1.17
9976.0,1.29,1.23
9978.0,1.28,1.25
9980.0,1.4,1.03
9982.0,1.45,1.08
9985.0,1.46,1.12
9987.0,1.48,1.07
9989.0,1.56,1.25
9991.0,1.56,1.31
9993.0,1.49,1.13
9995.0,1.37,1.05
9997.0,1.32,1.15
9999.0,1.28,1.38
10001.0,1.39,1.35
10003.0,1.44,1.15
10005.0,1.48,0.99
10006.0,1.5,1.06
10008.0,1.54,1.17
10010.0,1.47,1.24
10012.0,1.48,1.38
10014.0,1.36,1.45
10016.0,1.34,1.62
10018.0,1.33,1.76
10020.0,1.38,1.65
10022.0,1.48,1.51
10024.0,1.52,1.47
10027.0,1.49,1.63
10029.0,1.57,1.72
10031.0,1.57,1.65
10033.0,1.52,1.61
10035.0,1.4,1.73
10037.0,1.37,1.8
10039.0,1.33,1.85
10041.0,1.39,1.95
10043.0,1.47,1.99
10045.0,1.49,1.92
10047.0,1.48,1.94
10048.0,1.48,1.96
10050.0,1.39,1.82
10052.0,1.39,1.84
10054.0,1.3,1.73
10056.0,1.26,1.77
10058.0,1.29,1.84
10060.0,1.36,1.82
10062.0,1.44,1.79
10064.0,1.5,1.63
10066.0,1.44,1.54
10068.0,1.47,1.55
10071.0,1.49,1.47
10073.0,1.45,1.57
10075.0,1.32,1.83
10077.0,1.26,1.95
10079.0,1.24,1.78
10081.0,1.38,1.64
10083.0,1.5,1.51
10085.0,1.55,1.31
10087.0,1.49,1.22
10089.0,1.57,1.3
10091.0,1.53,1.36
10092.0,1.45,1.28
10094.0,1.31,1.27
10096.0,1.23,1.26
10098.0,1.25,1.17
10100.0,1.33,1.02
10102.0,1.43,0.98
10104.0,1.45,0.97
10106.0,1.47,0.86
10108.0,1.46,0.87
10110.0,1.5,1.0
10113.0,1.45,1.09
10115.0,1.35,1.15
10117.0,1.33,1.12
10119.0,1.32,1.08
10121.0,1.37,0.94
10123.0,1.48,0.84
10125.0,1.53,0.83
10127.0,1.5,0.89
10129.0,1.53,0.81
10131.0,1.53,0.83
10133.0,1.45,0.85
10134.0,1.31,0.91
10136.0,1.29,0.97
10138.0,1.34,1.04
10140.0,1.39,0.9
10142.0,1.48,0.83
10144.0,1.49,0.84
10146.0,1.48,0.94
10148.0,1.46,0.94
10150.0,1.54,0.87
10152.0,1.45,0.73
10155.0,1.34,0.69
10157.0,1.31,0.55
10159.0,1.33,0.51
10161.0,1.42,0.57
10163.0,1.51,0.57
10165.0,1.51,0.64
10167.0,1.52,0.88
10169.0,1.52,1.01
10171.0,1.48,1.04
10173.0,1.46,0.97
10175.0,1.35,0.91
10176.0,1.32,0.92
10178.0,1.23,0.78
10180.0,1.28,0.75
10182.0,1.35,0.89
10184.0,1.4,0.79
10186.0,1.41,0.8
10188.0,1.39,0.88
10190.0,1.37,0.94
10192.0,1.33,0.99
10194.0,1.23,1.06
10196.0,1.22,1.11
10199.0,1.17,1.24
10201.0,1.22,1.23
10203.0,1.34,0.75
10205.0,1.38,0.54
10207.0,1.37,0.77
10209.0,1.43,0.95
10211.0,1.39,0.88
10213.0,1.36,0.78
10215.0,1.24,0.77
10217.0,1.26,0.8
10219.0,1.19,0.95
10220.0,1.21,0.81
10222.0,1.28,0.57
10224.0,1.31,0.45
10226.0,1.3,0.43
10228.0,1.33,0.47
10230.0,1.39,0.46
10232.0,1.4,0.42
10234.0,1.26,0.54
10236.0,1.19,0.79
10238.0,1.17,0.79
10241.0,1.28,0.59
10243.0,1.44,0.43
10245.0,1.51,0.32
10247.0,1.51,0.39
10249.0,1.54,0.47
10251.0,1.53,0.72
10253.0,1.42,0.98
10255.0,1.33,0.95
10257.0,1.32,1.01
10259.0,1.32,1.02
10261.0,1.37,1.01
10262.0,1.46,1.1
10264.0,1.52,1.15
10266.0,1.59,1.25
10268.0,1.6,1.35
10270.0,1.58,1.43
10272.0,1.56,1.66
10274.0,1.44,1.75
10276.0,1.42,1.66
10278.0,1.4,1.52
10280.0,1.41,1.42
10283.0,1.49,1.33
10285.0,1.53,1.21
10287.0,1.54,1.28
10289.0,1.64,1.4
10291.0,1.6,1.61
10293.0,1.56,1.9
10295.0,1.45,2.0
10297.0,1.38,2.14
10299.0,1.36,2.12
10301.0,1.44,2.1
10303.0,1.55,2.08
10304.0,1.61,2.08
10306.0,1.6,2.24
10308.0,1.61,2.43
10310.0,1.6,2.47
10312.0,1.55,2.58
10314.0,1.42,2.74
10316.0,1.41,2.83
10318.0,1.39,2.88
10320.0,1.44,2.87
10322.0,1.54,2.89
10324.0,1.55,2.82
10327.0,1.48,2.84
10329.0,1.46,2.97
10331.0,1.51,3.04
10333.0,1.49,2.91
10335.0,1.38,2.82
10337.0,1.34,2.82
10339.0,1.33,2.76
10341.0,1.34,2.85
10343.0,1.41,2.76
10345.0,1.48,2.6
10347.0,1.53,2.65
10348.0,1.6,2.67
10350.0,1.56,2.57
10352.0,1.52,2.55
10354.0,1.36,2.48
10356.0,1.31,2.43
10358.0,1.28,2.58
10360.0,1.34,2.54
10362.0,1.42,2.48
10364.0,1.43,2.26
10366.0,1.43,2.28
10369.0,1.42,2.21
10371.0,1.46,2.22
10373.0,1.48,2.28
10375.0,1.34,2.4
10377.0,1.27,2.44
10379.0,1.28,2.28
10381.0,1.38,2.19
10383.0,1.42,2.07
10385.0,1.48,1.84
10387.0,1.52,1.78
10389.0,1.52,1.66
10390.0,1.52,1.46
10392.0,1.46,1.38
10394.0,1.33,1.31
10396.0,1.3,1.29
10398.0,1.31,1.24
10400.0,1.41,1.14
10402.0,1.5,0.91
10404.0,1.55,0.74
10406.0,1.59,0.89
10408.0,1.56,0.95
10411.0,1.61,1.09
10413.0,1.49,1.35
10415.0,1.35,1.45
10417.0,1.32,1.42
10419.0,1.27,1.35
10421.0,1.3,1.16
10423.0,1.42,1.04
10425.0,1.43,0.9
10427.0,1.48,1.15
10429.0,1.55,1.42
10431.0,1.49,1.52
10432.0,1.45,1.56
10434.0,1.35,1.61
10436.0,1.32,1.64
10438.0,1.32,1.6
10440.0,1.33,1.48
10442.0,1.44,1.41
10444.0,1.46,1.28
10446.0,1.48,1.34
10448.0,1.45,1.26
10450.0,1.48,1.36
10452.0,1.44,1.42
10455.0,1.31,1.18
10457.0,1.27,1.21
10459.0,1.27,1.28
10461.0,1.31,1.24
10463.0,1.39,1.21
10465.0,1.44,1.21
10467.0,1.47,1.26
10469.0,1.55,1.28
10471.0,1.49,1.28
10473.0,1.48,1.37
10475.0,1.43,1.37
10476.0,1.39,1.44
10478.0,1.36,1.46
10480.0,1.43,1.43
10482.0,1.52,1.39
10484.0,1.54,1.36
10486.0,1.6,1.48
10488.0,1.62,1.5
10490.0,1.58,1.49
10492.0,1.53,1.55
10494.0,1.41,1.58
10497.0,1.38,1.65
10499.0,1.32,1.59
10501.0,1.37,1.51
10503.0,1.48,1.55
10505.0,1.52,1.72
10507.0,1.49,1.84
10509.0,1.56,2.03
10511.0,1.5,2.04
10513.0,1.49,2.05
10515.0,1.38,2.12
10517.0,1.39,2.17
10518.0,1.4,2.19
10520.0,1.47,2.13
10522.0,1.54,2.01
10524.0,1.58,1.9
10526.0,1.6,2.0
10528.0,1.59,2.02
10530.0,1.53,1.93
10532.0,1.53,1.92
10534.0,1.38,1.94
10536.0,1.4,1.96
10539.0,1.41,1.94
10541.0,1.52,1.96
10543.0,1.54,1.89
10545.0,1.54,1.95
10547.0,1.51,1.98
10549.0,1.51,1.76
10551.0,1.44,1.65
10553.0,1.46,1.67
10555.0,1.35,1.7
10557.0,1.36,1.71
10559.0,1.4,1.62
10561.0,1.48,1.64
10562.0,1.54,1.52
10564.0,1.58,1.36
10566.0,1.61,1.39
10568.0,1.59,1.42
10570.0,1.56,1.43
10572.0,1.54,1.41
10574.0,1.43,1.42
10576.0,1.42,1.44
10578.0,1.41,1.41
10580.0,1.5,1.27
10583.0,1.57,1.08
10585.0,1.59,1.06
10587.0,1.64,1.29
10589.0,1.64,1.42
10591.0,1.64,1.46
10593.0,1.61,1.42
10595.0,1.48,1.46
10597.0,1.42,1.65
10599.0,1.35,1.67
10601.0,1.41,1.65
10603.0,1.5,1.5
10604.0,1.51,1.33
10606.0,1.51,1.43
10608.0,1.51,1.35
10610.0,1.49,1.23
10612.0,1.41,1.36
10614.0,1.25,1.4
10616.0,1.24,1.43
10618.0,1.23,1.5
10620.0,1.29,1.48
10622.0,1.36,1.45
10625.0,1.4,1.35
10627.0,1.46,1.4
10629.0,1.48,1.32
10631.0,1.48,1.3
10633.0,1.41,1.33
10635.0,1.29,1.35
10637.0,1.25,1.46
10639.0,1.21,1.45
10641.0,1.25,1.33
10643.0,1.38,1.18
10645.0,1.42,1.1
10646.0,1.42,1.18
10648.0,1.44,1.35
10650.0,1.43,1.37
10652.0,1.36,1.42
10654.0,1.26,1.42
10656.0,1.23,1.49
10658.0,1.31,1.36
10660.0,1.34,1.21
10662.0,1.43,1.13
10664.0,1.41,1.12
10667.0,1.4,1.13
10669.0,1.4,1.02
10671.0,1.42,0.92
10673.0,1.36,0.96
10675.0,1.24,0.94
10677.0,1.24,0.99
10679.0,1.24,0.97
10681.0,1.3,0.95
10683.0,1.44,0.75
10685.0,1.48,0.69
10687.0,1.49,0.79
10689.0,1.55,0.87
10690.0,1.52,0.9
10692.0,1.51,0.8
10694.0,1.35,0.87
10696.0,1.35,1.23
10698.0,1.28,1.29
10700.0,1.33,1.19
10702.0,1.51,1.1
10704.0,1.5,1.02
10706.0,1.53,0.97
10708.0,1.54,1.03
10711.0,1.49,0.99
10713.0,1.41,1.06
10715.0,1.3,1.06
10717.0,1.33,1.05
10719.0,1.33,1.08
10721.0,1.38,1.0
10723.0,1.46,0.87
10725.0,1.48,0.69
10727.0,1.49,0.94
10729.0,1.48,0.93
10731.0,1.52,0.89
10732.0,1.44,0.87
10734.0,1.32,0.9
10736.0,1.31,1.3
10738.0,1.31,1.61
10740.0,1.39,1.64
10742.0,1.42,1.42
10744.0,1.46,1.25
10746.0,1.52,1.18
10748.0,1.57,1.0
10750.0,1.49,0.84
10753.0,1.43,0.82
10755.0,1.31,0.9
10757.0,1.27,0.93
10759.0,1.3,0.81
10761.0,1.4,0.6
10763.0,1.49,0.49
10765.0,1.53,0.41
10767.0,1.56,0.36
10769.0,1.55,0.47
10771.0,1.47,0.5
10773.0,1.41,0.74
10774.0,1.27,0.96
10776.0,1.25,0.88
10778.0,1.28,0.71
10780.0,1.37,0.74
10782.0,1.43,0.68
10784.0,1.45,0.63
10786.0,1.51,0.66
10788.0,1.51,0.73
10790.0,1.41,0.73
10792.0,1.41,0.92
10795.0,1.33,0.98
10797.0,1.3,0.82
10799.0,1.33,0.61
10801.0,1.4,0.36
10803.0,1.53,0.29
10805.0,1.53,0.23
10807.0,1.58,0.41
10809.0,1.6,0.53
10811.0,1.65,0.67
10813.0,1.6,0.76
10815.0,1.45,0.68
10817.0,1.42,0.89
10818.0,1.45,1.05
10820.0,1.52,0.87
10822.0,1.6,0.66
10824.0,1.59,0.77
10826.0,1.62,0.93
10828.0,1.68,1.15
10830.0,1.68,1.33
10832.0,1.6,1.35
10834.0,1.46,1.47
10836.0,1.45,1.51
10839.0,1.42,1.49
10841.0,1.49,1.4
10843.0,1.59,1.39
10845.0,1.58,1.41
10847.0,1.61,1.39
10849.0,1.6,1.34
10851.0,1.65,1.28
10853.0,1.57,1.32
10855.0,1.45,1.61
10857.0,1.5,1.63
10859.0,1.46,1.7
10860.0,1.54,1.67
10862.0,1.65,1.82
10864.0,1.65,1.75
10866.0,1.62,1.82
10868.0,1.68,2.02
10870.0,1.71,2.25
10872.0,1.66,2.57
10874.0,1.56,2.57
10876.0,1.53,2.42
10878.0,1.48,2.35
10881.0,1.54,2.26
10883.0,1.63,2.23
10885.0,1.67,1.98
10887.0,1.69,1.87
10889.0,1.72,1.95
10891.0,1.67,2.15
10893.0,1.57,2.17
10895.0,1.41,2.29
10897.0,1.45,2.44
10899.0,1.41,2.38
10901.0,1.51,2.13
10902.0,1.66,1.99
10904.0,1.64,2.02
10906.0,1.65,2.36
10908.0,1.72,2.65
10910.0,1.66,2.8
10912.0,1.62,2.6
10914.0,1.52,2.45
10916.0,1.51,2.48
10918.0,1.49,2.27
10920.0,1.57,2.16
10923.0,1.64,2.06
10925.0,1.6,2.08
10927.0,1.61,2.32
10929.0,1.58,2.29
10931.0,1.55,2.24
10933.0,1.51,2.2
10935.0,1.41,2.23
10937.0,1.4,2.13
10939.0,1.35,1.88
10941.0,1.38,1.52
10943.0,1.41,1.42
10945.0,1.43,1.19
10946.0,1.47,1.26
10948.0,1.54,1.42
10950.0,1.54,1.66
10952.0,1.47,1.77
10954.0,1.34,1.85
10956.0,1.33,1.95
10958.0,1.29,1.95
10960.0,1.33,1.81
10962.0,1.45,1.71
10964.0,1.47,1.7
10967.0,1.52,1.74
10969.0,1.55,1.59
10971.0,1.45,1.61
10973.0,1.43,1.93
10975.0,1.31,1.93
10977.0,1.34,1.85
10979.0,1.35,1.77
10981.0,1.37,1.63
10983.0,1.44,1.54
10985.0,1.44,1.49
10987.0,1.48,1.47
10988.0,1.57,1.48
10990.0,1.55,1.39
10992.0,1.42,1.34
10994.0,1.24,1.39
10996.0,1.22,1.5
10998.0,1.22,1.38
11000.0,1.26,1.35
11002.0,1.39,1.27
11004.0,1.42,1.34
11006.0,1.45,1.49
11009.0,1.44,1.55
11011.0,1.35,1.35
11013.0,1.3,1.26
11015.0,1.24,1.24
11017.0,1.28,1.28
11019.0,1.24,1.29
11021.0,1.31,1.15
11023.0,1.42,1.15
11025.0,1.42,1.21
11027.0,1.37,1.27
11029.0,1.52,1.49
11030.0,1.5,1.57
11032.0,1.41,1.55
11034.0,1.3,1.65
11036.0,1.31,1.63
11038.0,1.33,1.6
11040.0,1.41,1.69
11042.0,1.46,1.65
11044.0,1.52,1.31
11046.0,1.52,1.3
11048.0,1.57,1.42
11051.0,1.52,1.48
11053.0,1.49,1.66
11055.0,1.36,1.7
11057.0,1.35,1.82
11059.0,1.36,1.66
11061.0,1.46,1.63
11063.0,1.56,1.72
11065.0,1.53,1.69
11067.0,1.46,1.76
11069.0,1.45,1.98
11071.0,1.44,2.14
11073.0,1.44,2.04
11074.0,1.32,1.81
11076.0,1.32,1.71
11078.0,1.38,1.79
11080.0,1.47,1.67
11082.0,1.56,1.53
11084.0,1.55,1.31
11086.0,1.55,1.24
11088.0,1.56,1.25
11090.0,1.47,1.29
11092.0,1.45,1.43
11095.0,1.34,1.67
11097.0,1.31,1.77
11099.0,1.32,1.8
11101.0,1.41,1.74
11103.0,1.55,1.56
11105.0,1.58,1.53
11107.0,1.62,1.58
11109.0,1.64,1.67
11111.0,1.57,1.99
11113.0,1.52,1.97
11115.0,1.38,1.79
11116.0,1.41,1.77
11118.0,1.37,1.61
11120.0,1.38,1.57
11122.0,1.46,1.54
11124.0,1.45,1.5
11126.0,1.48,1.63
11128.0,1.52,1.7
11130.0,1.46,1.55
11132.0,1.45,1.55
11134.0,1.34,1.56
11137.0,1.35,1.74
11139.0,1.37,1.8
11141.0,1.44,1.77
11143.0,1.54,1.66
11145.0,1.52,1.69
11147.0,1.56,1.79
11149.0,1.55,1.81
11151.0,1.54,1.74
11153.0,1.5,1.65
11155.0,1.38,1.52
11157.0,1.38,1.45
11158.0,1.38,1.43
11160.0,1.45,1.2
11162.0,1.59,1.01
11164.0,1.56,1.06
11166.0,1.54,1.17
11168.0,1.55,1.25
11170.0,1.51,1.28
11172.0,1.48,1.35
11174.0,1.37,1.44
11176.0,1.4,1.51
11179.0,1.37,1.36
11181.0,1.45,1.21
11183.0,1.59,1.03
11185.0,1.56,0.78
11187.0,1.57,0.84
11189.0,1.61,0.87
11191.0,1.55,0.89
11193.0,1.48,1.0
11195.0,1.34,1.1
11197.0,1.34,1.2
11199.0,1.36,1.13
11201.0,1.44,1.14
11202.0,1.52,1.04
11204.0,1.48,0.97
11206.0,1.47,1.13
11208.0,1.53,1.2
11210.0,1.5,1.25
11212.0,1.42,1.24
11214.0,1.26,1.18
11216.0,1.26,1.17
11218.0,1.21,1.19
11220.0,1.26,1.18
11223.0,1.35,1.0
11225.0,1.34,0.9
11227.0,1.33,1.03
11229.0,1.39,1.15
11231.0,1.34,1.18
11233.0,1.26,1.06
11235.0,1.14,1.03
11237.0,1.2,1.23
11239.0,1.23,1.44
11241.0,1.32,1.45
11243.0,1.41,1.45
11244.0,1.43,1.39
11246.0,1.47,1.39
11248.0,1.45,1.5
11250.0,1.46,1.45
11252.0,1.44,1.35
11254.0,1.36,1.27
11256.0,1.4,1.25
11258.0,1.42,1.29
11260.0,1.52,1.13
11262.0,1.62,0.99
11265.0,1.62,0.98
11267.0,1.66,1.06
11269.0,1.59,1.39
11271.0,1.51,1.71
11273.0,1.48,2.09
11275.0,1.38,2.33
11277.0,1.4,2.44
11279.0,1.4,2.39
11281.0,1.43,2.31
11283.0,1.48,2.22
11285.0,1.48,2.15
11287.0,1.48,2.14
11288.0,1.48,2.1
11290.0,1.52,2.11
11292.0,1.43,2.1
11294.0,1.25,2.13
11296.0,1.26,2.31
11298.0,1.27,2.07
11300.0,1.32,1.89
11302.0,1.44,1.71
11304.0,1.42,1.76
11307.0,1.45,1.97
11309.0,1.48,2.08
11311.0,1.49,2.18
11313.0,1.38,2.18
11315.0,1.26,2.09
11317.0,1.29,1.98
11319.0,1.34,1.95
11321.0,1.45,1.91
11323.0,1.53,1.88
11325.0,1.52,1.78
11327.0,1.51,1.78
11329.0,1.53,1.9
11330.0,1.49,2.05
11332.0,1.37,2.1
11334.0,1.26,1.98
11336.0,1.28,2.01
11338.0,1.27,2.0
11340.0,1.36,1.89
11342.0,1.52,1.74
11344.0,1.54,1.66
11346.0,1.57,1.76
11348.0,1.63,1.9
11351.0,1.57,1.83
11353.0,1.45,1.85
11355.0,1.29,1.98
11357.0,1.35,2.08
11359.0,1.3,1.94
11361.0,1.34,1.9
11363.0,1.44,1.77
11365.0,1.44,1.65
11367.0,1.42,1.55
11369.0,1.48,1.46
11371.0,1.47,1.37
11372.0,1.46,1.39
11374.0,1.34,1.37
11376.0,1.36,1.45
11378.0,1.34,1.28
11380.0,1.34,1.18
11382.0,1.46,1.03
11384.0,1.48,1.01
11386.0,1.5,1.12
11388.0,1.52,1.19
11390.0,1.48,1.09
11393.0,1.38,1.21
11395.0,1.28,1.28
11397.0,1.28,1.38
11399.0,1.28,1.43
11401.0,1.35,1.29
11403.0,1.42,1.07
11405.0,1.41,1.15
11407.0,1.45,1.18
11409.0,1.48,1.18
11411.0,1.43,1.22
11413.0,1.39,1.32
11415.0,1.27,1.4
11416.0,1.33,1.56
11418.0,1.35,1.53
11420.0,1.43,1.45
11422.0,1.49,1.31
11424.0,1.51,1.15
11426.0,1.57,1.21
11428.0,1.49,1.31
11430.0,1.47,1.4
11432.0,1.48,1.49
11435.0,1.34,1.49
11437.0,1.35,1.62
11439.0,1.39,1.4
11441.0,1.43,1.3
11443.0,1.43,1.16
11445.0,1.44,1.14
11447.0,1.49,1.2
11449.0,1.5,1.3
11451.0,1.47,1.42
11453.0,1.45,1.55
11455.0,1.31,1.53
11457.0,1.35,1.56
11458.0,1.35,1.52
11460.0,1.37,1.42
11462.0,1.47,1.28
11464.0,1.45,1.21
11466.0,1.46,1.37
11468.0,1.46,1.35
11470.0,1.49,1.38
11472.0,1.5,1.42
11474.0,1.41,1.5
11476.0,1.42,1.64
11479.0,1.44,1.64
11481.0,1.49,1.5
11483.0,1.62,1.3
11485.0,1.62,1.07
11487.0,1.62,1.15
11489.0,1.58,1.28
11491.0,1.59,1.42
11493.0,1.51,1.46
11495.0,1.34,1.37
11497.0,1.3,1.41
11499.0,1.33,1.35
11500.0,1.37,1.23
11502.0,1.49,1.29
11504.0,1.48,1.31
11506.0,1.55,1.42
11508.0,1.55,1.39
11510.0,1.55,1.35
11512.0,1.44,1.35
11514.0,1.32,1.34
11516.0,1.36,1.47
11518.0,1.37,1.51
11521.0,1.39,1.27
11523.0,1.48,1.09
11525.0,1.52,1.06
11527.0,1.51,1.35
11529.0,1.55,1.54
11531.0,1.52,1.63
11533.0,1.45,1.66
11535.0,1.36,1.66
11537.0,1.37,1.74
11539.0,1.37,1.69
11541.0,1.42,1.62
11543.0,1.57,1.63
11544.0,1.57,1.77
11546.0,1.59,1.69
11548.0,1.52,1.4
11550.0,1.47,1.32
11552.0,1.44,1.52
11554.0,1.3,1.55
11556.0,1.32,1.56
11558.0,1.37,1.46
11560.0,1.51,1.38
11563.0,1.63,1.25
11565.0,1.58,1.21
11567.0,1.48,1.3
11569.0,1.51,1.38
11571.0,1.48,1.35
11573.0,1.43,1.29
11575.0,1.32,1.22
11577.0,1.34,1.37
11579.0,1.39,1.37
11581.0,1.5,1.23
11583.0,1.55,1.05
11585.0,1.58,1.02
11586.0,1.62,1.13
11588.0,1.65,1.11
11590.0,1.56,1.07
11592.0,1.5,1.16
11594.0,1.37,1.15
11596.0,1.43,1.29
11598.0,1.4,1.25
11600.0,1.47,1.22
11602.0,1.55,1.16
11604.0,1.53,1.19
11607.0,1.55,1.19
11609.0,1.56,1.31
11611.0,1.54,1.36
11613.0,1.48,1.35
11615.0,1.36,1.31
11617.0,1.4,1.4
11619.0,1.39,1.34
11621.0,1.45,1.33
11623.0,1.52,1.33
11625.0,1.53,1.37
11627.0,1.56,1.42
11629.0,1.6,1.45
11630.0,1.57,1.49
11632.0,1.52,1.79
11634.0,1.35,1.72
11636.0,1.35,1.58
11638.0,1.39,1.71
11640.0,1.5,1.64
11642.0,1.57,1.49
11644.0,1.54,1.39
11646.0,1.52,1.24
11649.0,1.49,1.16
11651.0,1.45,1.21
11653.0,1.43,1.2
11655.0,1.32,1.16
11657.0,1.31,1.12
11659.0,1.35,0.98
11661.0,1.44,1.06
11663.0,1.48,1.05
11665.0,1.48,1.05
11667.0,1.51,1.08
11669.0,1.47,1.05
11671.0,1.43,1.26
11672.0,1.41,1.45
11674.0,1.29,1.51
11676.0,1.29,1.55
11678.0,1.33,1.49
11680.0,1.46,1.48
11682.0,1.55,1.42
11684.0,1.56,1.52
11686.0,1.6,1.57
11688.0,1.62,1.51
11691.0,1.61,1.52
11693.0,1.51,1.61
11695.0,1.3,1.6
11697.0,1.27,1.49
11699.0,1.31,1.25
11701.0,1.38,1.07
11703.0,1.45,1.25
11705.0,1.45,1.44
11707.0,1.48,1.58
11709.0,1.47,1.64
11711.0,1.45,1.67
11713.0,1.42,1.71
11714.0,1.32,1.56
11716.0,1.28,1.58
11718.0,1.29,1.41
11720.0,1.36,1.39
11722.0,1.45,1.21
11724.0,1.47,1.2
11726.0,1.51,1.3
11728.0,1.46,1.2
11730.0,1.48,1.17
11732.0,1.43,1.19
11735.0,1.32,1.07
11737.0,1.42,1.05
11739.0,1.48,1.08
11741.0,1.56,0.9
11743.0,1.66,0.76
11745.0,1.7,0.79
11747.0,1.76,0.74
11749.0,1.74,0.7
11751.0,1.63,0.57
11753.0,1.51,0.79
11755.0,1.35,0.75
11757.0,1.41,0.77
11758.0,1.51,0.61
11760.0,1.58,0.25
11762.0,1.66,0.01
11764.0,1.65,0.1
11766.0,1.66,0.36
11768.0,1.62,0.46
11770.0,1.63,0.68
11772.0,1.6,0.89
11774.0,1.47,0.96
11777.0,1.43,0.74
11779.0,1.48,0.44
11781.0,1.55,0.28
11783.0,1.62,0.14
11785.0,1.64,0.18
11787.0,1.69,0.32
11789.0,1.7,0.73
11791.0,1.63,1.0
11793.0,1.54,0.82
11795.0,1.45,0.59
11797.0,1.49,0.55
11799.0,1.55,0.41
11800.0,1.63,0.33
11802.0,1.69,0.27
11804.0,1.66,0.31
11806.0,1.67,0.5
11808.0,1.69,0.62
11810.0,1.65,0.82
11812.0,1.53,1.38
11814.0,1.41,1.66
11816.0,1.45,1.75
11819.0,1.45,1.63
11821.0,1.54,1.67
11823.0,1.62,1.7
11825.0,1.65,1.75
11827.0,1.65,2.03
11829.0,1.72,2.33
11831.0,1.69,2.33
11833.0,1.6,2.23
11835.0,1.51,2.16
11837.0,1.53,2.38
11839.0,1.54,2.42
11841.0,1.62,2.48
11842.0,1.72,2.41
11844.0,1.75,2.42
11846.0,1.76,2.55
11848.0,1.76,2.67
11850.0,1.69,2.71
11852.0,1.63,2.88
11854.0,1.48,2.69
11856.0,1.44,2.8
11858.0,1.45,2.9
11860.0,1.5,3.05
11863.0,1.57,2.81
11865.0,1.55,2.71
11867.0,1.51,2.73
11869.0,1.55,2.7
11871.0,1.54,2.62
11873.0,1.44,2.68
11875.0,1.3,2.56
11877.0,1.29,2.61
11879.0,1.33,2.49
11881.0,1.41,2.31
11883.0,1.49,2.25
11885.0,1.55,2.12
11886.0,1.67,2.22
11888.0,1.64,2.13
11890.0,1.58,2.06
11892.0,1.56,2.04
11894.0,1.48,1.92
11896.0,1.53,1.82
11898.0,1.61,1.81
11900.0,1.64,1.71
11902.0,1.72,1.57
11905.0,1.68,1.47
11907.0,1.71,1.59
11909.0,1.67,1.56
11911.0,1.61,1.58
11913.0,1.54,1.76
11915.0,1.43,1.96
11917.0,1.46,2.0
11919.0,1.5,1.98
11921.0,1.56,1.78
11923.0,1.67,1.54
11925.0,1.7,1.52
11927.0,1.73,1.61
11928.0,1.78,1.71
11930.0,1.68,1.65
11932.0,1.59,1.78
11934.0,1.47,1.88
11936.0,1.46,1.85
11938.0,1.49,1.64
11940.0,1.52,1.49
11942.0,1.62,1.4
11944.0,1.62,1.38
11947.0,1.62,1.38
11949.0,1.55,1.2
11951.0,1.46,1.31
11953.0,1.39,1.55
11955.0,1.27,1.45
11957.0,1.29,1.4
11959.0,1.34,1.36
11961.0,1.4,1.37
11963.0,1.46,1.25
11965.0,1.39,1.13
11967.0,1.38,1.25
11969.0,1.43,1.54
11970.0,1.4,1.63
11972.0,1.33,1.57
11974.0,1.19,1.53
11976.0,1.17,1.71
11978.0,1.16,1.77
11980.0,1.26,1.71
11982.0,1.34,1.54
11984.0,1.38,1.59
11986.0,1.45,1.72
11988.0,1.44,1.78
11991.0,1.38,1.87
11993.0,1.32,1.79
11995.0,1.21,1.74
11997.0,1.23,1.73
11999.0,1.24,1.52
12001.0,1.35,1.42
12003.0,1.43,1.39
12005.0,1.4,1.49
12007.0,1.43,1.51
12009.0,1.46,1.54
12011.0,1.43,1.52
12013.0,1.32,1.56
12014.0,1.18,1.71
12016.0,1.24,1.79
12018.0,1.25,1.68
12020.0,1.33,1.62
12022.0,1.41,1.61
12024.0,1.38,1.56
12026.0,1.43,1.56
12028.0,1.5,1.54
12030.0,1.41,1.64
12033.0,1.32,1.67
12035.0,1.22,1.74
12037.0,1.23,1.68
12039.0,1.25,1.63
12041.0,1.34,1.47
12043.0,1.46,1.39
12045.0,1.45,1.45
12047.0,1.44,1.48
12049.0,1.46,1.45
12051.0,1.44,1.39
12053.0,1.35,1.48
12055.0,1.21,1.68
12056.0,1.19,1.75
12058.0,1.25,1.65
12060.0,1.39,1.46
12062.0,1.44,1.36
12064.0,1.42,1.28
12066.0,1.37,1.15
12068.0,1.4,1.22
12070.0,1.38,1.29
12072.0,1.39,1.35
12075.0,1.3,1.38
12077.0,1.28,1.31
12079.0,1.37,1.13
12081.0,1.44,0.92
12083.0,1.55,0.83
12085.0,1.54,0.95
12087.0,1.56,1.05
12089.0,1.58,1.13
12091.0,1.53,1.03
12093.0,1.46,1.01
12095.0,1.37,1.27
12097.0,1.37,1.4
12098.0,1.4,1.21
12100.0,1.44,0.94
12102.0,1.51,0.76
12104.0,1.49,1.0
12106.0,1.53,1.18
12108.0,1.49,1.17
12110.0,1.44,1.08
12112.0,1.42,1.09
12114.0,1.31,1.11
12116.0,1.29,1.2
12119.0,1.36,1.19
12121.0,1.42,1.16
12123.0,1.46,1.17
12125.0,1.38,1.16
12127.0,1.35,1.07
12129.0,1.42,1.06
12131.0,1.37,1.19
12133.0,1.24,1.44
12135.0,1.1,1.43
12137.0,1.17,1.37
12139.0,1.17,1.16
12141.0,1.22,0.98
12142.0,1.31,0.86
12144.0,1.35,0.82
12146.0,1.39,0.92
12148.0,1.44,1.06
12150.0,1.41,1.16
12152.0,1.34,1.2
12154.0,1.22,1.22
12156.0,1.16,1.29
12158.0,1.2,1.51
12161.0,1.25,1.53
12163.0,1.33,1.47
12165.0,1.31,1.47
12167.0,1.37,1.54
12169.0,1.38,1.35
12171.0,1.38,1.37
12173.0,1.31,1.5
12175.0,1.23,1.53
12177.0,1.3,1.64
12179.0,1.33,1.59
12181.0,1.39,1.49
12183.0,1.5,1.3
12184.0,1.49,1.13
12186.0,1.49,1.25
12188.0,1.54,1.48
12190.0,1.51,1.49
12192.0,1.39,1.56
12194.0,1.26,1.55
12196.0,1.25,1.58
12198.0,1.24,1.62
12200.0,1.28,1.61
12203.0,1.38,1.46
12205.0,1.35,1.45
12207.0,1.33,1.55
12209.0,1.36,1.56
12211.0,1.31,1.56
12213.0,1.2,1.57
12215.0,1.09,1.45
12217.0,1.14,1.39
12219.0,1.19,1.39
12221.0,1.21,1.36
12223.0,1.26,1.39
12225.0,1.27,1.38
12226.0,1.22,1.21
12228.0,1.27,1.1
12230.0,1.28,0.93
12232.0,1.25,0.75
12234.0,1.16,0.71
12236.0,1.2,0.75
12238.0,1.21,0.65
12240.0,1.28,0.6
12242.0,1.37,0.66
12244.0,1.38,0.72
12247.0,1.4,0.87
12249.0,1.42,0.89
12251.0,1.4,1.04
12253.0,1.27,1.04
12255.0,1.19,0.99
12257.0,1.21,1.04
12259.0,1.24,0.98
12261.0,1.34,0.96
12263.0,1.46,0.93
12265.0,1.49,0.91
12267.0,1.52,1.04
12269.0,1.5,1.13
12270.0,1.4,1.05
12272.0,1.35,1.0
12274.0,1.26,0.96
12276.0,1.22,1.07
12278.0,1.26,1.16
12280.0,1.36,1.18
12282.0,1.45,1.05
12284.0,1.49,1.0
12286.0,1.57,1.31
12289.0,1.59,1.4
12291.0,1.51,1.45
12293.0,1.44,1.5
12295.0,1.31,1.32
12297.0,1.3,1.2
12299.0,1.35,1.24
12301.0,1.41,1.15
12303.0,1.48,0.88
12305.0,1.54,0.84
12307.0,1.6,0.86
12309.0,1.57,0.86
12311.0,1.56,0.94
12312.0,1.51,0.97
12314.0,1.41,0.95
12316.0,1.42,1.08
12318.0,1.49,1.13
12320.0,1.6,1.32
12322.0,1.65,1.27
12324.0,1.65,1.22
12326.0,1.65,1.31
12328.0,1.66,1.46
12331.0,1.58,1.57
12333.0,1.53,1.61
12335.0,1.43,1.63
12337.0,1.43,1.71
12339.0,1.45,1.67
12341.0,1.52,1.62
12343.0,1.61,1.54
12345.0,1.62,1.49
12347.0,1.67,1.49
12349.0,1.6,1.52
12351.0,1.58,1.57
12353.0,1.48,1.57
12354.0,1.38,1.55
12356.0,1.35,1.57
12358.0,1.42,1.58
12360.0,1.43,1.49
12362.0,1.51,1.45
12364.0,1.5,1.53
12366.0,1.52,1.56
12368.0,1.51,1.47
12370.0,1.49,1.35
12372.0,1.5,1.21
12375.0,1.43,1.15
12377.0,1.44,1.16
12379.0,1.48,1.15
12381.0,1.55,1.03
12383.0,1.63,0.98
12385.0,1.62,1.14
12387.0,1.63,1.3
12389.0,1.63,1.37
12391.0,1.56,1.45
12393.0,1.47,1.52
12395.0,1.41,1.49
12397.0,1.44,1.61
12398.0,1.45,1.55
12400.0,1.48,1.49
12402.0,1.57,1.51
12404.0,1.6,1.7
12406.0,1.57,1.78
12408.0,1.56,1.71
12410.0,1.55,1.59
12412.0,1.47,1.59
12414.0,1.37,1.66
12417.0,1.42,1.7
12419.0,1.44,1.54
12421.0,1.53,1.43
12423.0,1.56,1.32
12425.0,1.58,1.31
12427.0,1.55,1.32
12429.0,1.55,1.39
12431.0,1.47,1.55
12433.0,1.36,1.4
12435.0,1.28,1.3
12437.0,1.33,1.31
12439.0,1.4,1.26
12440.0,1.42,1.18
12442.0,1.46,1.25
12444.0,1.45,1.39
12446.0,1.44,1.5
12448.0,1.53,1.56
12450.0,1.52,1.48
12452.0,1.4,1.56
12454.0,1.27,1.7
12456.0,1.32,1.65
12459.0,1.33,1.52
12461.0,1.4,1.59
12463.0,1.48,1.51
12465.0,1.48,1.57
12467.0,1.51,1.65
12469.0,1.49,1.62
12471.0,1.41,1.54
12473.0,1.38,1.44
12475.0,1.34,1.31
12477.0,1.34,1.28
12479.0,1.4,1.32
12481.0,1.48,1.14
12482.0,1.56,0.99
12484.0,1.54,0.97
12486.0,1.55,1.02
12488.0,1.58,1.0
12490.0,1.5,0.97
12492.0,1.38,0.99
12494.0,1.25,1.07
12496.0,1.29,1.05
12498.0,1.33,0.92
12500.0,1.4,0.87
12503.0,1.45,0.76
12505.0,1.48,0.74
12507.0,1.51,0.8
12509.0,1.49,0.84
12511.0,1.47,0.84
12513.0,1.41,1.02
12515.0,1.32,1.04
12517.0,1.32,0.98
12519.0,1.34,0.93
12521.0,1.42,0.88
12523.0,1.48,0.79
12525.0,1.48,0.91
12526.0,1.48,1.05
12528.0,1.47,1.07
12530.0,1.44,1.17
12532.0,1.31,1.3
12534.0,1.22,1.2
12536.0,1.25,1.37
12538.0,1.28,1.5
12540.0,1.42,1.55
12542.0,1.5,1.47
12545.0,1.5,1.48
12547.0,1.49,1.55
12549.0,1.46,1.53
12551.0,1.4,1.54
12553.0,1.33,1.64
12555.0,1.25,1.63
12557.0,1.3,1.46
12559.0,1.31,1.53
12561.0,1.42,1.62
12563.0,1.45,1.6
12565.0,1.45,1.69
12567.0,1.48,1.88
12568.0,1.46,2.13
12570.0,1.48,2.27
12572.0,1.49,2.35
12574.0,1.4,2.37
12576.0,1.39,2.39
12578.0,1.45,2.25
12580.0,1.49,2.17
12582.0,1.55,2.05
12584.0,1.59,2.0
12587.0,1.65,2.0
12589.0,1.67,1.99
12591.0,1.56,2.01
12593.0,1.48,2.15
12595.0,1.4,2.16
12597.0,1.37,2.12
12599.0,1.44,2.15
12601.0,1.48,2.13
12603.0,1.52,2.01
12605.0,1.52,1.97
12607.0,1.55,2.33
12609.0,1.48,2.23
12610.0,1.46,2.02
12612.0,1.38,1.99
12614.0,1.36,2.04
12616.0,1.35,2.11
12618.0,1.41,2.02
12620.0,1.48,1.9
12622.0,1.53,1.71
12624.0,1.52,1.63
12626.0,1.52,1.58
12628.0,1.49,1.6
12631.0,1.45,1.47
12633.0,1.38,1.65
12635.0,1.3,1.87
12637.0,1.29,1.71
12639.0,1.34,1.51
12641.0,1.33,1.18
12643.0,1.39,1.03
12645.0,1.42,1.03
12647.0,1.49,1.26
12649.0,1.42,1.21
12651.0,1.37,1.17
12653.0,1.26,1.29
12654.0,1.21,1.45
12656.0,1.24,1.59
12658.0,1.34,1.42
12660.0,1.4,1.41
12662.0,1.43,1.33
12664.0,1.42,1.2
12666.0,1.47,1.15
12668.0,1.47,1.22
12670.0,1.44,1.21
12673.0,1.39,1.21
12675.0,1.32,1.23
12677.0,1.31,1.27
12679.0,1.33,1.28
12681.0,1.42,1.16
12683.0,1.48,1.28
12685.0,1.5,1.35
12687.0,1.53,1.34
12689.0,1.55,1.56
12691.0,1.51,1.74
12693.0,1.4,1.75
12695.0,1.37,1.49
12696.0,1.35,1.42
12698.0,1.36,1.35
12700.0,1.48,1.28
12702.0,1.58,1.25
12704.0,1.65,1.3
12706.0,1.6,1.29
12708.0,1.62,1.29
12710.0,1.58,1.33
12712.0,1.48,1.29
12715.0,1.39,1.29
12717.0,1.43,1.35
12719.0,1.48,1.45
12721.0,1.56,1.41
12723.0,1.65,1.34
12725.0,1.6,1.27
12727.0,1.63,1.39
12729.0,1.67,1.62
12731.0,1.59,1.7
12733.0,1.48,1.73
12735.0,1.46,1.56
12737.0,1.5,1.46
12738.0,1.57,1.36
12740.0,1.64,1.31
12742.0,1.68,1.15
12744.0,1.67,1.15
12746.0,1.65,1.04
12748.0,1.64,1.16
12750.0,1.6,1.05
12752.0,1.55,0.89
12754.0,1.48,1.06
12756.0,1.45,1.22
12759.0,1.52,1.0
12761.0,1.59,0.94
12763.0,1.65,0.67
12765.0,1.68,0.64
12767.0,1.71,0.66
12769.0,1.71,0.83
12771.0,1.59,0.85
12773.0,1.53,0.97
12775.0,1.44,0.8
12777.0,1.41,0.57
12779.0,1.45,0.3
12781.0,1.5,0.6
12782.0,1.62,1.16
12784.0,1.63,1.44
12786.0,1.66,1.32
12788.0,1.65,1.43
12790.0,1.62,1.58
12792.0,1.54,1.61
12794.0,1.55,2.21
12796.0,1.54,2.59
12798.0,1.61,2.59
12801.0,1.66,2.39
12803.0,1.72,2.24
12805.0,1.71,2.16
12807.0,1.73,2.83
12809.0,1.62,3.1
12811.0,1.56,2.99
12813.0,1.48,3.09
12815.0,1.41,3.12
12817.0,1.37,3.22
12819.0,1.38,3.25
12821.0,1.44,3.29
12823.0,1.52,3.04
12824.0,1.51,3.1
12826.0,1.51,3.14
12828.0,1.47,2.92
12830.0,1.56,2.86
12832.0,1.53,2.88
12834.0,1.56,3.0
12836.0,1.61,3.13
12838.0,1.65,3.02
12840.0,1.7,2.89
12843.0,1.75,2.79
12845.0,1.75,2.77
12847.0,1.71,2.81
12849.0,1.71,2.91
12851.0,1.65,2.9
12853.0,1.6,2.87
12855.0,1.55,2.69
12857.0,1.55,2.5
12859.0,1.65,2.16
12861.0,1.72,2.11
12863.0,1.73,2.01
12865.0,1.66,2.03
12866.0,1.63,1.87
12868.0,1.54,1.99
12870.0,1.52,1.82
12872.0,1.4,1.78
12874.0,1.36,2.14
12876.0,1.45,2.16
12878.0,1.54,2.01
12880.0,1.63,1.76
12882.0,1.7,1.63
12884.0,1.66,1.52
12887.0,1.61,1.46
12889.0,1.65,1.2
12891.0,1.63,1.06
12893.0,1.53,1.05
12895.0,1.42,0.96
12897.0,1.39,0.91
12899.0,1.4,1.09
12901.0,1.48,1.07
12903.0,1.54,0.85
12905.0,1.55,0.57
12907.0,1.6,0.21
12909.0,1.55,0.03
12910.0,1.49,0.05
12912.0,1.36,0.11
12914.0,1.26,0.0
12916.0,1.3,0.0
12918.0,1.38,0.0
12920.0,1.49,0.0
12922.0,1.56,0.0
12924.0,1.58,0.0
12926.0,1.68,0.0
12929.0,1.65,0.0
12931.0,1.6,0.0
12933.0,1.49,0.0
12935.0,1.45,0.0
12937.0,1.48,0.0
12939.0,1.55,0.25
12941.0,1.64,0.43
12943.0,1.7,0.76
12945.0,1.68,0.8
12947.0,1.7,0.58
12949.0,1.62,0.49
12951.0,1.51,0.49
12952.0,1.4,0.87
12954.0,1.41,1.25
12956.0,1.58,1.26
12958.0,1.75,1.39
12960.0,1.96,1.37
12962.0,1.97,1.0
12964.0,1.93,0.35
12966.0,1.86,0.05
12968.0,1.84,0.08
12971.0,1.76,0.0
12973.0,1.63,0.38
12975.0,1.52,0.38
12977.0,1.43,0.0
12979.0,1.51,0.0
12981.0,1.59,0.0
12983.0,1.59,0.0
12985.0,1.53,0.0
12987.0,1.55,0.0
12989.0,1.54,0.0
12991.0,1.5,0.39
12993.0,1.4,1.22
12994.0,1.39,1.75
12996.0,1.28,1.48
12998.0,1.3,1.35
13000.0,1.33,1.58
13002.0,1.36,2.27
13004.0,1.38,2.82
13006.0,1.4,3.01
13008.0,1.36,3.17
13010.0,1.3,3.3
13012.0,1.21,3.3
13015.0,1.19,3.3
13017.0,1.18,3.3
13019.0,1.25,3.3
13021.0,1.29,3.11
13023.0,1.31,2.47
13025.0,1.28,2.02
13027.0,1.25,1.82
13029.0,1.25,1.83
13031.0,1.18,1.67
13033.0,1.12,1.58
13035.0,1.1,1.81
13037.0,1.11,1.78
13038.0,1.12,1.3
13040.0,1.17,0.96
13042.0,1.26,0.79
13044.0,1.28,0.85
13046.0,1.3,1.18
13048.0,1.25,1.23
13050.0,1.17,1.25
13052.0,1.12,1.35
13054.0,1.1,1.59
13057.0,1.09,1.63
13059.0,1.15,1.79
13061.0,1.25,1.77
13063.0,1.3,1.79
13065.0,1.26,1.9
13067.0,1.25,1.82
13069.0,1.36,1.71
13071.0,1.37,2.0
13073.0,1.31,2.15
13075.0,1.23,2.41
13077.0,1.26,2.58
13079.0,1.31,2.51
13080.0,1.44,2.65
13082.0,1.49,2.84
13084.0,1.47,3.1
13086.0,1.5,3.3
13088.0,1.44,3.3
13090.0,1.41,3.3
13092.0,1.28,3.27
13094.0,1.18,3.21
13096.0,1.18,3.27
13099.0,1.27,3.18
13101.0,1.33,3.08
13103.0,1.39,2.95
13105.0,1.43,2.83
13107.0,1.4,2.86
13109.0,1.44,2.99
13111.0,1.42,3.01
13113.0,1.33,3.08
13115.0,1.3,3.22
13117.0,1.31,3.3
13119.0,1.33,3.14
13121.0,1.42,2.82
13122.0,1.47,2.59
13124.0,1.47,2.26
13126.0,1.52,2.11
13128.0,1.51,2.08
13130.0,1.49,2.07
13132.0,1.43,2.01
13134.0,1.37,2.06
13136.0,1.29,2.24
13138.0,1.34,2.36
13140.0,1.44,2.23
13143.0,1.54,1.99
13145.0,1.55,1.84
13147.0,1.54,1.76
13149.0,1.55,1.85
13151.0,1.52,1.88
13153.0,1.43,1.83
13155.0,1.41,1.95
13157.0,1.33,2.02
13159.0,1.36,1.88
13161.0,1.45,1.6
13163.0,1.49,1.51
13165.0,1.49,1.51
13166.0,1.47,1.52
13168.0,1.44,1.62
13170.0,1.31,1.69
13172.0,1.25,1.7
13174.0,1.2,1.64
13176.0,1.16,1.49
13178.0,1.31,1.46
13180.0,1.43,1.44
13182.0,1.41,1.22
13185.0,1.43,1.22
13187.0,1.46,1.32
13189.0,1.4,1.23
13191.0,1.33,1.08
13193.0,1.23,1.1
13195.0,1.16,1.1
13197.0,1.14,0.97
13199.0,1.21,0.79
13201.0,1.33,0.64
13203.0,1.36,0.35
13205.0,1.41,0.14
13207.0,1.41,0.16
13208.0,1.42,0.26
13210.0,1.37,0.02
13212.0,1.37,0.0
13214.0,1.32,0.04
13216.0,1.32,0.22
13218.0,1.38,0.11
13220.0,1.55,0.0
13222.0,1.63,0.0
13224.0,1.65,0.16
13227.0,1.68,0.47
13229.0,1.75,0.74
13231.0,1.69,1.0
13233.0,1.58,1.28
13235.0,1.53,1.38
13237.0,1.58,1.41
13239.0,1.6,1.23
13241.0,1.7,1.15
13243.0,1.73,1.22
13245.0,1.72,1.19
13247.0,1.75,1.21
13249.0,1.75,1.35
13250.0,1.66,1.44
13252.0,1.45,1.48
13254.0,1.32,1.51
13256.0,1.28,1.48
13258.0,1.27,1.42
13260.0,1.37,1.4
13262.0,1.38,1.27
13264.0,1.4,1.36
13266.0,1.49,1.27
13268.0,1.53,1.28
13271.0,1.48,1.04
13273.0,1.29,0.88
13275.0,1.19,0.87
13277.0,1.13,0.9
13279.0,1.15,0.85
13281.0,1.27,0.75
13283.0,1.35,0.47
13285.0,1.31,0.27
13287.0,1.22,0.25
13289.0,1.28,0.27
13291.0,1.15,0.2
13293.0,0.99,0.55
13294.0,0.95,0.79
13296.0,0.97,0.71
13298.0,1.04,0.52
13300.0,1.17,0.49
13302.0,1.35,0.49
13304.0,1.43,0.47
13306.0,1.46,0.59
13308.0,1.43,0.56
13310.0,1.44,0.54
13313.0,1.3,0.52
13315.0,1.27,0.68
13317.0,1.25,0.7
13319.0,1.3,0.78
13321.0,1.39,0.97
13323.0,1.43,0.95
13325.0,1.46,0.99
13327.0,1.45,1.17
13329.0,1.52,1.37
13331.0,1.48,1.49
13333.0,1.38,1.55
13335.0,1.4,1.65
13336.0,1.4,1.63
13338.0,1.47,1.51
13340.0,1.54,1.48
13342.0,1.59,1.57
13344.0,1.61,1.68
13346.0,1.57,1.77
13348.0,1.53,1.73
13350.0,1.51,1.62
13352.0,1.38,1.62
13355.0,1.36,1.56
13357.0,1.36,1.6
13359.0,1.41,1.64
13361.0,1.46,1.69
13363.0,1.47,1.65
13365.0,1.43,1.69
13367.0,1.38,1.69
13369.0,1.39,1.74
13371.0,1.35,1.72
13373.0,1.23,1.78
13375.0,1.18,1.79
13377.0,1.21,1.72
13378.0,1.28,1.66
13380.0,1.4,1.8
13382.0,1.44,1.84
13384.0,1.32,1.85
13386.0,1.32,1.74
13388.0,1.37,1.63
13390.0,1.41,1.66
13392.0,1.29,1.85
13394.0,1.23,1.83
13396.0,1.21,1.71
13399.0,1.23,1.77
13401.0,1.32,1.83
13403.0,1.32,1.78
13405.0,1.33,1.79
13407.0,1.37,1.81
13409.0,1.42,1.96
13411.0,1.39,2.02
13413.0,1.31,2.08
13415.0,1.28,2.03
13417.0,1.25,1.99
13419.0,1.29,1.96
13421.0,1.38,1.8
13422.0,1.44,1.69
13424.0,1.4,1.79
13426.0,1.45,1.9
13428.0,1.5,1.94
13430.0,1.39,1.74
13432.0,1.29,1.76
13434.0,1.27,1.77
13436.0,1.29,1.76
13438.0,1.38,1.72
13441.0,1.51,1.66
13443.0,1.55,1.63
13445.0,1.55,1.66
13447.0,1.53,1.68
13449.0,1.49,1.67
13451.0,1.43,1.74
13453.0,1.39,1.69
13455.0,1.37,1.57
13457.0,1.35,1.41
13459.0,1.43,1.29
13461.0,1.52,1.17
13463.0,1.53,0.94
13464.0,1.44,0.93
13466.0,1.48,1.05
13468.0,1.52,1.06
13470.0,1.49,1.04
13472.0,1.41,1.11
13474.0,1.29,1.18
13476.0,1.28,1.21
13478.0,1.36,1.22
13480.0,1.43,1.15
13483.0,1.46,0.96
13485.0,1.47,1.0
13487.0,1.47,1.04
13489.0,1.5,1.15
13491.0,1.49,1.18
13493.0,1.4,1.14
13495.0,1.41,1.15
13497.0,1.44,1.2
13499.0,1.45,1.16
13501.0,1.54,1.21
13503.0,1.61,1.22
13505.0,1.54,1.33
13506.0,1.58,1.41
13508.0,1.56,1.36
13510.0,1.54,1.26
13512.0,1.4,1.17
13514.0,1.37,1.26
13516.0,1.38,1.35
13518.0,1.47,1.39
13520.0,1.55,1.43
13522.0,1.59,1.32
13524.0,1.6,1.36
13527.0,1.61,1.4
13529.0,1.63,1.44
13531.0,1.58,1.38
13533.0,1.45,1.39
13535.0,1.41,1.47
13537.0,1.38,1.47
13539.0,1.46,1.4
13541.0,1.54,1.25
13543.0,1.51,1.15
13545.0,1.52,1.21
13547.0,1.5,1.34
13549.0,1.53,1.57
13550.0,1.45,1.59
13552.0,1.31,1.54
13554.0,1.29,1.56
13556.0,1.26,1.52
13558.0,1.33,1.45
13560.0,1.45,1.33
13562.0,1.49,1.15
13564.0,1.5,1.22
13566.0,1.51,1.3
13569.0,1.45,1.32
13571.0,1.41,1.33
13573.0,1.34,1.3
13575.0,1.3,1.26
13577.0,1.34,1.28
13579.0,1.39,1.11
13581.0,1.42,0.91
13583.0,1.48,0.79
13585.0,1.52,0.87
13587.0,1.54,1.05
13589.0,1.55,1.1
13591.0,1.48,1.1
13592.0,1.37,1.09
13594.0,1.32,0.98
13596.0,1.33,1.03
13598.0,1.34,0.96
13600.0,1.38,0.78
13602.0,1.41,0.65
13604.0,1.49,0.73
13606.0,1.51,0.75
13608.0,1.5,0.74
13611.0,1.46,0.93
13613.0,1.33,1.04
13615.0,1.29,0.95
13617.0,1.25,0.85
13619.0,1.28,0.75
13621.0,1.36,0.58
13623.0,1.39,0.66
13625.0,1.43,0.77
13627.0,1.49,0.98
13629.0,1.49,1.04
13631.0,1.45,1.08
13633.0,1.35,1.11
13634.0,1.33,1.09
13636.0,1.37,1.07
13638.0,1.46,1.02
13640.0,1.55,0.99
13642.0,1.56,1.1
13644.0,1.58,1.3
13646.0,1.6,1.33
13648.0,1.55,1.4
13650.0,1.48,1.5
13652.0,1.36,1.4
13655.0,1.35,1.43
13657.0,1.31,1.58
13659.0,1.35,1.76
13661.0,1.44,1.75
13663.0,1.46,1.72
13665.0,1.49,1.81
13667.0,1.51,1.72
13669.0,1.52,1.7
13671.0,1.51,1.69
13673.0,1.4,1.74
13675.0,1.35,1.8
13677.0,1.3,1.7
13678.0,1.42,1.71
13680.0,1.52,1.59
13682.0,1.58,1.47
13684.0,1.59,1.45
13686.0,1.65,1.52
13688.0,1.59,1.45
13690.0,1.54,1.42
13692.0,1.41,1.3
13694.0,1.38,1.36
13697.0,1.4,1.51
13699.0,1.53,1.46
13701.0,1.59,1.45
13703.0,1.64,1.33
13705.0,1.61,1.27
13707.0,1.61,1.32
13709.0,1.58,1.46
13711.0,1.55,1.38
13713.0,1.39,1.21
13715.0,1.37,1.41
13717.0,1.31,1.5
13719.0,1.38,1.46
13720.0,1.51,1.5
13722.0,1.55,1.48
13724.0,1.5,1.51
13726.0,1.52,1.53
13728.0,1.53,1.53
13730.0,1.46,1.51
13732.0,1.3,1.5
13734.0,1.27,1.56
13736.0,1.28,1.46
13739.0,1.38,1.42
13741.0,1.48,1.41
13743.0,1.57,1.28
13745.0,1.59,1.26
13747.0,1.61,1.36
13749.0,1.58,1.55
13751.0,1.55,1.66
13753.0,1.43,1.68
13755.0,1.38,1.75
13757.0,1.4,1.77
13759.0,1.46,1.82
13761.0,1.52,1.75
13762.0,1.53,1.57
13764.0,1.58,1.67
13766.0,1.56,1.6
13768.0,1.49,1.59
13770.0,1.5,1.65
13772.0,1.37,1.68
13774.0,1.3,1.66
13776.0,1.33,1.76
13778.0,1.37,1.84
13780.0,1.45,2.07
13783.0,1.5,2.02
13785.0,1.56,1.99
13787.0,1.58,2.01
13789.0,1.56,1.86
13791.0,1.52,1.73
13793.0,1.4,1.62
13795.0,1.39,1.67
13797.0,1.37,1.52
13799.0,1.41,1.43
13801.0,1.47,1.43
13803.0,1.53,1.43
13805.0,1.55,1.4
13806.0,1.52,1.48
13808.0,1.49,1.61
13810.0,1.44,1.56
13812.0,1.31,1.43
13814.0,1.28,1.43
13816.0,1.28,1.43
13818.0,1.34,1.34
13820.0,1.47,1.28
13822.0,1.5,1.35
13825.0,1.55,1.63
13827.0,1.6,1.65
13829.0,1.55,1.57
13831.0,1.49,1.63
13833.0,1.34,1.54
13835.0,1.26,1.55
13837.0,1.25,1.75
13839.0,1.27,1.6
13841.0,1.34,1.35
13843.0,1.35,1.36
13845.0,1.34,1.37
13847.0,1.36,1.44
13848.0,1.36,1.49
13850.0,1.34,1.64
13852.0,1.26,1.81
13854.0,1.35,1.99
13856.0,1.36,1.96
13858.0,1.42,1.9
13860.0,1.53,1.84
13862.0,1.56,1.47
13864.0,1.57,1.65
13867.0,1.6,1.85
13869.0,1.54,1.67
13871.0,1.47,1.52
13873.0,1.39,1.75
13875.0,1.4,1.81
13877.0,1.34,1.66
13879.0,1.43,1.73
13881.0,1.47,1.73
13883.0,1.46,1.67
13885.0,1.49,1.75
13887.0,1.54,1.86
13889.0,1.5,1.97
13890.0,1.44,2.05
13892.0,1.34,2.0
13894.0,1.36,2.03
13896.0,1.37,2.06
13898.0,1.45,2.05
13900.0,1.56,1.93
13902.0,1.59,1.86
13904.0,1.62,2.19
13906.0,1.63,2.23
13908.0,1.54,2.16
13911.0,1.48,2.14
13913.0,1.29,2.26
13915.0,1.25,2.32
13917.0,1.26,2.26
13919.0,1.36,2.12
13921.0,1.51,2.07
13923.0,1.55,2.0
13925.0,1.55,2.31
13927.0,1.57,2.33
13929.0,1.52,2.19
13931.0,1.53,2.1
13933.0,1.41,2.09
13934.0,1.41,2.13
13936.0,1.4,2.3
13938.0,1.4,2.3
13940.0,1.48,2.25
13942.0,1.5,2.09
13944.0,1.49,2.04
13946.0,1.56,2.07
13948.0,1.62,1.88
13950.0,1.56,1.78
13953.0,1.43,1.68
13955.0,1.48,1.74
13957.0,1.56,1.85
13959.0,1.75,1.67
13961.0,1.88,1.45
13963.0,1.89,1.2
13965.0,1.85,1.22
13967.0,1.88,1.23
13969.0,1.81,1.41
13971.0,1.87,1.77
13973.0,1.78,1.65
13975.0,1.85,1.42
13976.0,1.96,1.44
13978.0,2.13,1.45
13980.0,2.24,1.35
13982.0,2.26,1.06
13984.0,2.29,1.0
13986.0,2.32,1.15
13988.0,2.31,1.15
13990.0,2.25,1.33
13992.0,2.05,1.48
13995.0,2.04,1.45
13997.0,2.0,1.32
13999.0,2.02,1.09
14001.0,2.06,1.21
14003.0,2.01,1.21
14005.0,1.93,1.27
14007.0,1.98,1.24
14009.0,1.95,1.23
14011.0,1.93,1.24
14013.0,1.78,1.15
14015.0,1.69,1.38
14017.0,1.62,1.55
14018.0,1.72,1.43
14020.0,1.76,1.31
14022.0,1.78,1.36
14024.0,1.68,1.34
14026.0,1.67,1.52
14028.0,1.64,1.84
14030.0,1.58,1.72
14032.0,1.45,1.46
14034.0,1.46,1.41
14036.0,1.49,1.17
14039.0,1.61,0.91
14041.0,1.59,0.81
14043.0,1.61,0.79
14045.0,1.61,0.95
14047.0,1.59,0.99
14049.0,1.54,1.01
14051.0,1.49,1.08
14053.0,1.34,1.16
14055.0,1.27,1.22
14057.0,1.22,1.29
14059.0,1.32,1.25
14061.0,1.38,1.17
14062.0,1.3,1.01
14064.0,1.27,0.92
14066.0,1.24,0.83
14068.0,1.3,0.76
14070.0,1.21,0.61
14072.0,1.06,0.59
14074.0,1.05,0.81
14076.0,1.12,0.75
14078.0,1.2,0.65
14081.0,1.24,0.75
14083.0,1.26,0.78
14085.0,1.24,0.67
14087.0,1.25,0.69
14089.0,1.27,1.04
14091.0,1.26,1.31
14093.0,1.17,1.37
14095.0,1.18,1.43
14097.0,1.19,1.42
14099.0,1.27,1.35
14101.0,1.35,1.15
14103.0,1.36,1.17
14104.0,1.36,1.38
14106.0,1.36,1.5
14108.0,1.38,1.57
14110.0,1.36,1.42
14112.0,1.22,1.24
14114.0,1.25,1.26
14116.0,1.25,1.1
14118.0,1.28,0.87
14120.0,1.33,1.11
14123.0,1.37,1.12
14125.0,1.28,0.97
14127.0,1.47,0.93
14129.0,1.49,1.0
14131.0,1.39,0.98
14133.0,1.29,0.91
14135.0,1.24,0.96
14137.0,1.22,0.94
