time,ch1,ch2,ch3,button
1.0,1.2,2.83,1.52,0
3.0,1.15,3.3,1.47,0
5.0,1.21,1.88,1.37,0
7.0,1.31,0.0,1.3,0
9.0,1.32,0.0,1.28,0
11.0,1.42,0.0,1.27,0
13.0,1.45,0.0,1.3,0
15.0,1.4,0.0,1.33,0
17.0,1.33,0.0,1.33,0
19.0,1.25,0.0,1.34,0
21.0,1.24,1.72,1.41,0
23.0,1.33,3.3,1.39,0
25.0,1.34,2.1,1.32,0
27.0,1.43,0.0,1.25,0
29.0,1.44,0.0,1.22,0
31.0,1.3,0.0,1.2,0
33.0,1.4,0.0,1.21,0
35.0,1.38,0.0,1.25,0
37.0,1.45,0.0,1.27,0
39.0,1.6,0.0,1.29,0
41.0,1.46,3.3,1.4,0
43.0,1.35,3.3,1.38,0
45.0,1.29,2.35,1.31,0
47.0,1.24,0.0,1.23,0
49.0,1.35,0.0,1.2,0
51.0,1.44,0.0,1.18,0
53.0,1.45,0.0,1.18,0
55.0,1.43,0.0,1.19,0
57.0,1.35,0.0,1.22,0
59.0,1.31,0.0,1.27,0
61.0,1.25,1.27,1.33,0
63.0,1.23,3.3,1.35,0
65.0,1.33,1.82,1.28,0
67.0,1.37,0.0,1.23,0
69.0,1.38,0.0,1.19,0
71.0,1.39,0.0,1.19,0
73.0,1.4,0.0,1.21,0
75.0,1.34,0.06,1.23,0
77.0,1.22,0.21,1.23,0
79.0,1.19,0.37,1.26,0
81.0,1.15,1.56,1.32,0
83.0,1.06,3.3,1.32,0
86.0,1.14,2.44,1.25,0
87.0,1.15,0.39,1.15,0
89.0,1.15,0.26,1.11,0
91.0,1.22,0.38,1.13,0
93.0,1.13,0.51,1.15,0
95.0,1.15,0.63,1.19,0
97.0,1.21,0.75,1.2,0
99.0,1.2,0.87,1.25,0
101.0,1.13,2.0,1.31,0
103.0,1.24,3.3,1.3,0
105.0,1.27,2.45,1.25,0
107.0,1.31,0.85,1.18,0
109.0,1.39,0.75,1.13,0
111.0,1.45,0.84,1.1,0
113.0,1.46,0.94,1.1,0
115.0,1.44,1.02,1.07,0
117.0,1.41,1.11,1.05,0
119.0,1.4,1.2,1.08,0
121.0,1.38,2.64,1.18,0
123.0,1.43,3.3,1.21,0
125.0,1.46,2.45,1.19,0
128.0,1.43,1.14,1.16,0
130.0,1.57,1.06,1.16,0
132.0,1.67,1.13,1.13,0
134.0,1.66,1.2,1.05,0
135.0,1.58,1.25,1.12,0
137.0,1.53,1.32,1.18,0
139.0,1.44,1.39,1.28,0
141.0,1.38,3.3,1.39,0
143.0,1.45,3.3,1.4,0
145.0,1.43,2.38,1.35,0
147.0,1.53,0.43,1.31,0
149.0,1.54,0.3,1.3,0
151.0,1.54,0.42,1.33,0
153.0,1.49,0.55,1.34,0
155.0,1.46,0.66,1.43,0
157.0,1.38,0.77,1.47,0
159.0,1.37,0.89,1.51,0
161.0,1.34,3.3,1.61,0
163.0,1.39,3.3,1.58,0
165.0,1.38,2.13,1.51,0
167.0,1.36,0.0,1.43,0
169.0,1.47,0.0,1.42,0
172.0,1.57,0.0,1.43,0
174.0,1.57,0.0,1.49,0
176.0,1.47,0.0,1.56,0
177.0,1.29,0.12,1.61,0
179.0,1.18,0.29,1.66,0
181.0,1.25,3.3,1.75,0
183.0,1.28,3.3,1.75,0
185.0,1.26,1.88,1.66,0
187.0,1.27,0.0,1.57,0
189.0,1.35,0.0,1.57,0
191.0,1.37,0.0,1.58,0
193.0,1.39,0.0,1.56,0
195.0,1.37,0.0,1.56,0
197.0,1.34,0.0,1.56,0
199.0,1.35,0.0,1.59,0
201.0,1.34,3.3,1.69,0
203.0,1.36,3.3,1.67,0
205.0,1.44,1.52,1.55,0
207.0,1.42,0.0,1.49,0
209.0,1.34,0.0,1.45,0
211.0,1.42,0.0,1.45,0
214.0,1.5,0.0,1.49,0
216.0,1.49,0.0,1.56,0
218.0,1.34,0.0,1.58,0
220.0,1.25,0.0,1.6,0
221.0,1.21,3.3,1.69,0
223.0,1.34,3.3,1.65,0
225.0,1.46,1.46,1.55,0
227.0,1.41,0.0,1.5,0
229.0,1.45,0.0,1.48,0
231.0,1.47,0.0,1.45,0
233.0,1.48,0.0,1.45,0
235.0,1.39,0.0,1.45,0
237.0,1.35,0.0,1.45,0
239.0,1.3,0.0,1.46,0
241.0,1.16,3.3,1.54,0
243.0,1.27,3.3,1.49,0
245.0,1.32,1.43,1.34,0
247.0,1.36,0.0,1.26,0
249.0,1.46,0.0,1.23,0
251.0,1.43,0.0,1.21,0
253.0,1.52,0.0,1.22,0
256.0,1.53,0.0,1.23,0
258.0,1.48,0.0,1.24,0
260.0,1.38,0.0,1.28,0
262.0,1.29,3.3,1.37,0
264.0,1.37,3.3,1.34,0
265.0,1.4,1.29,1.19,0
267.0,1.46,0.0,1.15,0
269.0,1.63,0.0,1.14,0
271.0,1.46,0.0,1.17,0
273.0,1.35,0.0,1.21,0
275.0,1.43,0.0,1.25,0
277.0,1.41,0.0,1.28,0
279.0,1.37,0.0,1.33,0
281.0,1.42,3.3,1.43,0
283.0,1.37,3.3,1.41,0
285.0,1.42,0.88,1.28,0
287.0,1.47,0.0,1.3,0
289.0,1.49,0.0,1.32,0
291.0,1.45,0.0,1.36,0
293.0,1.43,0.0,1.4,0
295.0,1.37,0.0,1.47,0
297.0,1.28,0.0,1.66,0
300.0,1.18,0.0,1.96,0
302.0,1.1,3.3,2.15,0
304.0,1.2,3.3,2.16,0
306.0,1.19,1.02,2.02,0
308.0,1.17,0.0,1.94,0
309.0,1.32,0.0,1.89,0
311.0,1.41,0.0,1.88,0
313.0,1.34,0.0,1.86,0
315.0,1.25,0.0,1.87,0
317.0,1.15,0.0,1.88,0
319.0,1.15,0.0,1.93,0
321.0,1.16,3.3,2.06,0
323.0,1.13,3.3,2.06,0
325.0,1.26,1.07,2.12,0
327.0,1.38,0.0,2.28,0
329.0,1.46,0.0,2.37,0
331.0,1.4,0.0,2.45,0
333.0,1.37,0.0,2.49,0
335.0,1.31,0.0,2.53,0
337.0,1.22,0.0,2.54,0
339.0,1.13,0.2,2.56,0
342.0,1.11,3.3,2.64,0
344.0,1.12,3.3,2.63,0
346.0,1.24,1.07,2.49,0
348.0,1.35,0.0,2.43,0
350.0,1.04,0.0,2.36,0
352.0,0.94,0.0,2.35,0
354.0,1.36,0.0,2.38,0
356.0,1.38,0.0,2.41,0
358.0,1.27,0.03,2.43,0
360.0,1.21,0.24,2.46,0
361.0,1.15,3.3,2.53,0
363.0,1.15,3.3,2.47,0
365.0,1.21,1.01,2.3,0
367.0,1.2,0.0,2.26,0
369.0,1.24,0.0,2.24,0
371.0,1.4,0.0,2.21,0
373.0,1.46,0.0,2.19,0
375.0,1.34,0.0,2.18,0
377.0,1.21,0.0,2.17,0
379.0,1.18,0.02,2.17,0
381.0,1.18,3.3,2.21,0
384.0,1.17,3.3,2.16,0
386.0,1.27,1.57,1.97,0
388.0,1.34,0.0,1.87,0
390.0,1.32,0.0,1.83,0
392.0,1.43,0.0,1.78,0
394.0,1.37,0.0,1.77,0
396.0,1.18,0.0,1.76,0
398.0,1.34,0.0,1.72,0
400.0,1.63,2.63,1.85,0
402.0,1.55,3.3,1.82,0
403.0,1.53,3.3,1.76,0
405.0,1.59,3.25,1.67,0
407.0,1.58,0.0,1.54,0
409.0,1.71,0.0,1.48,0
411.0,1.83,0.0,1.44,0
413.0,1.84,0.0,1.42,0
415.0,1.64,0.0,1.45,0
417.0,1.61,0.0,1.46,0
419.0,1.63,3.3,1.61,0
421.0,1.57,3.3,1.58,0
423.0,1.57,3.3,1.55,0
425.0,1.6,3.3,1.47,0
428.0,1.61,0.0,1.35,0
430.0,1.64,0.0,1.32,0
432.0,1.62,0.0,1.28,0
434.0,1.59,0.0,1.32,0
436.0,1.53,0.0,1.38,0
438.0,1.46,0.0,1.41,0
440.0,1.4,3.3,1.57,0
442.0,1.32,3.3,1.58,0
444.0,1.31,3.3,1.56,0
446.0,1.42,3.3,1.51,0
448.0,1.5,0.0,1.39,0
449.0,1.46,0.0,1.37,0
451.0,1.46,0.0,1.36,0
453.0,1.42,0.0,1.35,0
455.0,1.29,0.0,1.36,0
457.0,1.23,0.0,1.39,0
459.0,1.18,3.3,1.55,0
461.0,1.15,3.3,1.54,0
463.0,1.16,3.3,1.5,0
465.0,1.13,3.3,1.42,0
467.0,1.21,0.0,1.29,0
470.0,1.39,0.0,1.26,0
472.0,1.42,0.0,1.26,0
474.0,1.38,0.0,1.26,0
476.0,1.29,0.0,1.29,0
478.0,1.25,0.0,1.28,0
480.0,1.22,3.3,1.41,0
482.0,1.13,3.3,1.42,0
484.0,1.13,3.3,1.4,0
486.0,1.17,3.3,1.34,0
488.0,1.29,0.0,1.21,0
490.0,1.43,0.0,1.2,0
492.0,1.36,0.0,1.2,0
493.0,1.25,0.0,1.21,0
495.0,1.25,0.0,1.24,0
497.0,1.29,0.0,1.22,0
499.0,1.26,3.3,1.35,0
501.0,1.15,3.3,1.34,0
503.0,1.22,3.3,1.32,0
505.0,1.33,3.3,1.29,0
507.0,1.35,0.0,1.17,0
509.0,1.4,0.0,1.15,0
512.0,1.42,0.0,1.18,0
514.0,1.42,0.0,1.2,0
516.0,1.33,0.0,1.19,0
518.0,1.19,0.0,1.19,0
520.0,1.22,3.3,1.22,0
522.0,1.27,3.3,1.15,0
524.0,1.26,3.3,1.12,0
526.0,1.33,3.3,1.06,0
528.0,1.4,0.0,0.93,0
530.0,1.55,0.0,0.92,0
532.0,1.58,0.0,0.94,0
534.0,1.49,0.0,0.95,0
536.0,1.41,0.0,0.95,0
538.0,1.39,0.0,0.95,0
540.0,1.34,3.3,1.09,0
541.0,1.34,3.3,1.07,0
543.0,1.45,3.3,1.0,0
545.0,1.54,3.3,0.95,0
547.0,1.51,2.71,0.87,0
549.0,1.56,0.0,0.8,0
551.0,1.74,0.0,0.83,0
553.0,1.74,0.0,0.86,0
556.0,1.67,0.0,0.91,0
558.0,1.61,3.3,1.01,0
560.0,1.49,3.3,1.04,0
562.0,1.49,3.3,1.03,0
564.0,1.52,3.3,0.96,0
566.0,1.6,3.3,0.92,0
568.0,1.64,0.0,0.84,0
570.0,1.73,0.0,0.85,0
572.0,1.73,0.0,0.87,0
574.0,1.69,0.0,0.89,0
576.0,1.62,0.0,0.95,0
578.0,1.53,2.45,1.08,0
580.0,1.44,3.3,1.12,0
582.0,1.45,3.3,1.14,0
584.0,1.54,3.3,1.12,0
586.0,1.58,3.3,1.07,0
587.0,1.54,0.0,0.99,0
589.0,1.65,0.0,1.02,0
591.0,1.61,0.0,1.07,0
593.0,1.49,0.0,1.06,0
595.0,1.48,0.0,1.06,0
598.0,1.45,1.26,1.12,0
600.0,1.33,3.3,1.16,0
602.0,1.35,3.3,1.01,0
604.0,1.44,3.3,0.89,0
606.0,1.54,3.3,0.46,0
608.0,1.52,0.0,0.07,0
610.0,1.49,0.0,0.0,0
612.0,1.61,0.0,0.0,0
614.0,1.6,0.0,0.0,0
616.0,1.41,0.0,0.0,0
618.0,1.56,0.13,0.01,0
620.0,1.49,3.3,0.08,0
622.0,1.46,3.3,0.08,0
624.0,1.5,3.3,0.08,0
626.0,1.55,2.12,0.03,0
628.0,1.64,0.0,0.0,0
630.0,1.63,0.0,0.0,0
632.0,1.55,0.0,0.0,0
634.0,1.52,0.0,0.0,0
635.0,1.41,0.0,0.0,0
637.0,1.41,0.0,0.0,0
640.0,1.19,3.3,0.08,0
642.0,1.14,3.3,0.08,0
644.0,1.4,3.3,0.08,0
646.0,1.58,0.0,0.0,0
648.0,1.59,0.0,0.0,0
650.0,1.61,0.0,0.0,0
652.0,1.57,0.0,0.0,0
654.0,1.43,0.0,0.0,0
656.0,1.43,0.0,0.0,0
658.0,1.42,0.46,0.02,0
660.0,1.38,3.3,0.09,0
662.0,1.36,3.3,0.18,0
664.0,1.41,3.3,0.25,0
666.0,1.41,0.0,0.23,0
668.0,1.34,0.0,0.38,0
670.0,1.42,0.0,0.51,0
672.0,1.45,0.0,0.63,0
674.0,1.41,0.0,0.73,0
676.0,1.3,0.0,0.82,0
678.0,1.19,0.0,0.6,0
679.0,1.27,3.3,0.08,0
681.0,1.34,3.3,0.08,0
684.0,1.36,2.17,0.02,0
686.0,1.34,0.0,0.0,0
688.0,1.3,0.0,0.0,0
690.0,1.31,0.0,0.03,0
692.0,1.29,0.0,0.15,0
694.0,1.25,0.0,0.28,0
696.0,1.19,0.0,0.42,0
698.0,1.21,0.0,0.54,0
700.0,1.15,3.3,0.13,0
702.0,1.14,3.3,0.08,0
704.0,1.07,0.0,0.0,0
706.0,1.03,0.0,0.0,0
708.0,1.0,0.0,0.0,0
710.0,0.84,0.0,0.0,0
712.0,0.85,0.0,0.0,0
714.0,0.96,0.0,0.0,0
716.0,0.85,0.0,0.0,0
718.0,0.92,0.0,0.0,0
720.0,1.07,3.3,0.08,0
722.0,1.0,3.3,0.08,0
724.0,0.98,0.0,0.0,0
727.0,1.15,0.0,0.0,0
728.0,1.21,0.0,0.0,0
730.0,1.24,0.0,0.0,0
732.0,1.27,0.0,0.0,0
734.0,1.24,0.0,0.0,0
736.0,1.21,0.0,0.0,0
738.0,1.24,0.0,0.0,0
740.0,1.28,3.3,0.08,0
742.0,1.41,3.3,0.08,0
744.0,1.47,1.73,0.03,0
746.0,1.5,0.0,0.0,0
748.0,1.57,0.0,0.0,0
750.0,1.65,0.0,0.0,0
752.0,1.8,0.0,0.0,0
754.0,1.79,0.0,0.0,0
756.0,1.76,0.0,0.0,0
758.0,1.77,0.0,0.0,0
760.0,1.72,3.3,0.09,0
762.0,1.7,3.3,0.09,0
764.0,1.65,2.86,0.07,0
766.0,1.92,0.0,0.13,0
769.0,2.01,0.0,0.32,0
771.0,1.9,0.0,0.52,0
773.0,1.78,0.0,0.72,0
774.0,1.72,0.0,0.91,0
776.0,1.61,0.0,1.05,0
778.0,1.5,0.0,0.92,0
780.0,1.55,3.3,0.08,0
782.0,1.51,3.3,0.08,0
784.0,1.62,2.07,0.04,0
786.0,1.68,0.0,0.0,0
788.0,1.74,0.0,0.0,0
790.0,1.74,0.0,0.0,0
792.0,1.72,0.0,0.0,0
794.0,1.67,0.07,0.13,0
796.0,1.51,0.34,0.48,0
798.0,1.4,0.63,0.82,0
800.0,1.43,3.3,1.17,0
802.0,1.53,2.91,1.37,0
804.0,1.57,1.23,0.36,0
806.0,1.62,1.13,0.46,0
808.0,1.65,1.31,0.74,0
811.0,1.73,1.5,0.97,0
813.0,1.68,1.68,1.1,0
815.0,1.51,1.83,1.28,0
817.0,1.52,1.98,1.45,0
818.0,1.66,2.13,1.57,0
820.0,1.61,2.29,1.58,0
822.0,1.61,2.85,1.63,0
824.0,1.57,2.54,1.68,0
826.0,1.57,2.59,1.68,0
828.0,1.62,2.67,1.77,0
830.0,1.67,2.75,1.85,0
832.0,1.73,2.8,1.62,0
834.0,1.7,2.84,1.65,0
836.0,1.62,2.89,1.78,0
838.0,1.62,2.94,2.0,0
840.0,1.64,3.01,2.16,0
842.0,1.63,3.07,2.26,0
844.0,1.59,3.12,2.36,0
846.0,1.58,3.16,2.51,0
848.0,1.6,3.18,2.67,0
850.0,1.57,3.19,2.83,0
852.0,1.51,3.19,2.98,0
855.0,1.44,3.18,3.13,0
857.0,1.34,3.17,3.22,0
859.0,1.05,3.18,3.3,0
861.0,1.25,3.21,3.3,0
863.0,1.43,3.23,3.3,0
864.0,1.35,3.25,3.3,0
866.0,1.3,3.25,3.3,0
868.0,1.46,3.24,3.3,0
870.0,1.47,3.2,3.3,0
872.0,1.39,3.16,3.3,0
874.0,1.34,3.11,3.3,0
876.0,1.29,3.07,3.29,0
878.0,1.27,3.05,3.29,0
880.0,1.28,3.05,3.29,0
882.0,1.32,3.05,3.29,0
884.0,1.35,3.05,3.29,0
886.0,1.26,3.04,3.29,0
888.0,1.35,3.01,3.29,0
890.0,1.41,2.97,3.29,0
892.0,1.14,2.91,3.29,0
894.0,0.87,2.86,3.29,0
897.0,0.98,2.82,3.29,0
899.0,1.16,2.79,3.28,0
901.0,1.11,2.79,3.28,0
903.0,1.11,2.79,3.28,0
905.0,1.11,2.79,3.29,0
907.0,1.06,2.78,3.28,0
909.0,1.04,2.75,3.28,0
911.0,0.74,2.71,3.28,0
913.0,0.52,2.66,3.28,0
914.0,0.4,2.61,3.28,0
916.0,0.31,2.58,3.28,0
918.0,0.26,2.56,3.28,0
920.0,0.29,2.56,3.28,0
922.0,0.35,2.57,3.28,0
924.0,0.35,2.57,3.28,0
926.0,0.31,2.56,3.28,0
928.0,0.32,2.55,3.28,0
930.0,0.38,2.51,3.28,0
932.0,0.34,2.46,3.27,0
934.0,0.3,2.42,3.27,0
936.0,0.28,2.38,3.27,0
939.0,0.21,2.36,3.27,0
941.0,0.21,2.37,3.27,0
943.0,0.22,2.38,3.27,0
945.0,0.28,2.39,3.27,0
947.0,0.34,2.38,3.27,0
949.0,0.33,2.36,3.27,0
951.0,0.41,2.32,3.27,0
953.0,0.47,2.27,3.27,0
955.0,0.5,2.23,3.27,0
957.0,0.45,2.19,3.27,0
958.0,0.47,2.18,3.26,0
960.0,0.54,2.18,3.26,0
962.0,0.63,2.19,3.26,0
964.0,0.61,2.2,3.26,0
966.0,0.6,2.2,3.27,0
968.0,0.57,2.18,3.26,0
970.0,0.55,2.14,3.26,0
972.0,0.75,2.1,3.26,0
974.0,0.76,2.06,3.26,0
976.0,0.66,2.03,3.26,0
978.0,0.66,2.02,3.26,0
980.0,0.65,3.3,3.3,0
983.0,0.63,3.3,3.3,0
985.0,0.68,2.5,3.27,0
987.0,0.87,0.77,3.23,0
989.0,1.06,0.62,3.23,0
991.0,1.19,0.68,3.23,0
993.0,1.29,0.75,3.23,0
995.0,1.38,0.82,3.23,0
997.0,1.42,0.89,3.24,0
999.0,1.43,1.06,3.25,0
1001.0,1.55,3.3,3.3,0
1002.0,1.71,3.3,3.3,0
1004.0,1.89,2.34,3.26,0
1006.0,2.07,0.0,3.22,0
1008.0,2.29,0.0,3.22,0
1010.0,2.77,0.0,3.22,0
1012.0,2.68,0.0,3.21,0
1014.0,2.64,0.0,3.22,0
1016.0,2.67,0.0,3.21,0
1018.0,2.64,3.3,3.3,0
1020.0,2.68,3.3,3.3,0
1022.0,2.75,3.3,3.3,0
1025.0,2.84,3.3,3.3,0
1027.0,2.92,0.0,3.22,0
1029.0,2.9,0.0,3.22,0
1031.0,2.94,0.0,3.22,0
1033.0,2.95,0.0,3.22,0
1035.0,2.81,0.0,3.22,0
1037.0,2.85,0.0,3.22,0
1039.0,3.06,1.85,3.3,0
1041.0,3.11,3.3,3.3,0
1043.0,3.06,3.3,3.3,0
1044.0,3.0,3.3,3.3,0
1046.0,3.03,0.0,3.21,0
1048.0,3.12,0.0,3.22,0
1050.0,3.05,0.0,3.22,0
1052.0,2.81,0.0,3.22,0
1054.0,2.56,0.0,3.22,0
1056.0,2.56,0.0,3.22,0
1058.0,2.72,0.0,3.22,0
1060.0,2.9,0.0,3.22,0
1062.0,3.3,0.0,3.22,0
1064.0,3.3,0.0,3.22,0
1067.0,3.3,0.0,3.22,0
1069.0,3.3,0.0,3.22,0
1071.0,3.3,0.0,3.22,0
1073.0,3.3,0.0,3.22,0
1075.0,3.3,0.0,3.22,0
1077.0,3.3,0.0,3.22,0
1079.0,3.3,0.0,3.22,0
1081.0,3.3,0.0,3.22,0
1083.0,3.3,0.0,3.22,0
1085.0,3.3,0.0,3.22,0
1086.0,3.3,0.0,3.22,0
1088.0,3.3,0.14,3.22,0
1090.0,3.3,0.29,3.23,0
1092.0,3.3,0.44,3.23,0
1094.0,3.3,0.57,3.23,0
1096.0,3.3,0.7,3.23,0
1098.0,3.3,0.84,3.24,0
1100.0,3.3,0.99,3.24,0
1102.0,3.3,1.13,3.25,0
1104.0,3.3,1.27,3.25,0
1106.0,3.3,1.38,3.25,0
1108.0,3.3,1.48,3.25,0
1111.0,3.11,1.54,3.25,0
1113.0,2.95,1.6,3.25,0
1115.0,2.68,1.64,3.25,0
1117.0,2.39,1.7,3.25,0
1119.0,1.97,1.76,3.25,0
1121.0,2.09,1.84,3.26,0
1123.0,2.51,1.92,3.26,0
1125.0,2.56,2.0,3.26,0
1127.0,2.71,2.07,3.26,0
1129.0,2.83,2.12,3.27,0
1130.0,2.61,2.15,3.26,0
1132.0,2.38,2.18,3.26,0
1134.0,2.26,2.2,3.26,0
1136.0,1.93,2.24,3.27,0
1138.0,1.67,2.29,3.27,0
1140.0,1.45,2.35,3.27,0
1142.0,1.44,2.42,3.27,0
1144.0,1.43,2.47,3.27,0
1146.0,1.36,2.52,3.27,0
1148.0,1.41,2.55,3.11,0
1150.0,1.24,2.56,2.77,0
1153.0,1.25,2.56,2.35,0
1155.0,1.41,2.56,2.01,0
1157.0,1.35,2.57,1.61,0
1159.0,1.32,2.59,1.29,0
1161.0,1.34,2.62,1.09,0
1163.0,1.38,2.66,0.85,0
1165.0,1.36,2.7,0.53,0
1167.0,1.45,2.73,0.36,0
1169.0,1.43,2.74,0.25,0
1171.0,1.26,2.74,0.08,0
1172.0,1.08,2.72,0.06,0
1174.0,1.06,2.7,0.06,0
1176.0,0.72,2.69,0.06,0
1178.0,0.47,2.7,0.06,0
1180.0,0.15,2.71,0.07,0
1182.0,0.18,2.73,0.06,0
1184.0,0.25,2.74,0.06,0
1186.0,0.21,2.74,0.05,0
1188.0,0.37,2.74,0.06,0
1190.0,0.32,2.72,0.06,0
1192.0,0.13,2.69,0.06,0
1195.0,0.0,2.67,0.06,0
1197.0,0.0,2.65,0.06,0
1199.0,0.0,2.65,0.06,0
1201.0,0.0,2.67,0.06,0
1203.0,0.0,2.68,0.06,0
1205.0,0.0,2.7,0.06,0
1207.0,0.0,2.7,0.06,0
1209.0,0.0,2.7,0.06,0
1211.0,0.0,2.68,0.06,0
1213.0,0.0,2.65,0.06,0
1214.0,0.0,2.63,0.06,0
1216.0,0.0,2.61,0.06,0
1218.0,0.0,2.6,0.06,0
1220.0,0.0,2.6,0.05,0
1222.0,0.0,2.61,0.05,0
1224.0,0.0,2.61,0.06,0
1226.0,0.0,2.61,0.06,0
1228.0,0.0,2.6,0.05,0
1230.0,0.0,2.57,0.05,0
1232.0,0.0,2.55,0.06,0
1234.0,0.0,2.52,0.05,0
1236.0,0.0,2.5,0.05,0
1239.0,0.0,2.5,0.06,0
1241.0,0.0,2.5,0.05,0
1243.0,0.0,2.51,0.05,0
1245.0,0.0,2.51,0.05,0
1247.0,0.0,2.51,0.05,0
1249.0,0.0,2.5,0.05,0
1251.0,0.0,2.48,0.05,0
1253.0,0.0,2.45,0.05,0
1255.0,0.0,2.42,0.05,0
1257.0,0.0,2.4,0.05,0
1258.0,0.0,2.39,0.05,0
1260.0,0.0,2.39,0.05,0
1262.0,0.0,2.39,0.05,0
1264.0,0.0,2.39,0.05,0
1266.0,0.0,2.38,0.05,0
1268.0,0.0,2.37,0.05,0
1270.0,0.0,2.34,0.05,0
1272.0,0.0,2.31,0.05,0
1274.0,0.0,2.28,0.05,0
1276.0,0.0,2.26,0.05,0
1278.0,0.0,2.25,0.05,0
1281.0,0.0,2.25,0.05,0
1283.0,0.0,2.26,0.05,0
1285.0,0.0,2.26,0.05,0
1287.0,0.0,2.26,0.05,0
1289.0,0.0,2.25,0.05,0
1291.0,0.0,2.23,0.05,0
1293.0,0.0,2.2,0.05,0
1295.0,0.0,2.17,0.05,0
1297.0,0.0,2.15,0.05,0
1299.0,0.0,2.14,0.05,0
1300.0,0.01,2.15,0.05,0
1302.0,0.27,2.15,0.05,0
1304.0,0.83,2.15,0.06,0
1306.0,1.27,2.15,0.05,0
1308.0,1.63,2.14,0.05,0
1310.0,1.86,2.11,0.04,0
1312.0,1.8,2.08,0.05,0
1314.0,1.83,2.05,0.04,0
1316.0,2.16,2.03,0.04,0
1318.0,2.2,2.01,0.04,0
1320.0,2.31,2.01,0.04,0
1323.0,2.49,2.0,0.04,0
1325.0,2.5,2.0,0.04,0
1327.0,2.43,1.99,0.04,0
1329.0,2.35,1.97,0.04,0
1331.0,2.33,1.95,0.04,0
1333.0,2.4,1.92,0.04,0
1335.0,2.34,1.88,0.05,0
1337.0,1.94,1.86,0.09,0
1339.0,2.62,1.85,0.13,0
1341.0,2.39,1.85,0.15,0
1342.0,2.85,1.85,0.17,0
1344.0,2.73,1.86,0.16,0
1346.0,2.74,1.85,0.16,0
1348.0,2.73,1.84,0.18,0
1350.0,2.58,1.82,0.26,0
1352.0,1.77,1.79,0.36,0
1354.0,1.35,1.77,0.46,0
1356.0,0.8,1.76,0.51,0
1358.0,0.51,1.76,0.53,0
1360.0,0.59,1.77,0.56,0
1362.0,0.82,1.78,0.55,0
1364.0,1.48,1.79,0.52,0
1367.0,2.19,1.8,0.51,0
1369.0,1.99,1.8,0.5,0
1371.0,1.66,1.78,0.56,0
1373.0,1.31,1.77,0.62,0
1375.0,1.82,1.75,0.65,0
1377.0,2.58,1.74,0.61,0
1379.0,2.62,1.74,0.6,0
1381.0,2.92,1.75,0.55,0
1383.0,3.12,1.76,0.54,0
1385.0,3.3,1.78,0.5,0
1386.0,3.3,1.79,0.5,0
1388.0,3.3,1.8,0.46,0
1390.0,3.3,1.79,0.5,0
1392.0,3.3,1.78,0.53,0
1394.0,3.3,1.78,0.57,0
1396.0,3.3,1.79,0.56,0
1398.0,3.3,1.81,0.57,0
1400.0,3.3,1.85,0.55,0
1402.0,3.3,1.89,0.54,0
1404.0,3.3,1.93,0.49,0
1406.0,3.3,1.97,0.47,0
1409.0,3.3,2.01,0.48,0
1411.0,3.3,2.04,0.48,0
1413.0,3.3,2.06,0.5,0
1415.0,3.3,2.09,0.49,0
1417.0,3.3,2.12,0.38,0
1419.0,3.3,2.18,0.29,0
1421.0,3.3,2.23,0.3,0
1423.0,3.3,2.28,0.25,0
1425.0,3.3,2.33,0.05,0
1427.0,3.3,2.38,0.05,0
1428.0,3.3,2.43,0.05,0
1430.0,3.3,2.45,0.05,0
1432.0,3.3,2.46,0.05,0
1434.0,3.3,2.47,0.05,0
1436.0,3.3,2.49,0.05,0
1438.0,3.21,2.51,0.05,0
1440.0,2.77,2.53,0.05,0
1442.0,2.69,2.56,0.05,0
1444.0,2.24,2.59,0.05,0
1446.0,1.51,2.61,0.05,0
1448.0,1.05,2.62,0.05,0
1451.0,0.75,2.62,0.05,0
1453.0,0.73,2.62,0.06,0
1455.0,0.54,2.61,0.06,0
1457.0,0.65,2.6,0.05,0
1459.0,0.75,2.59,0.06,0
1461.0,0.64,2.59,0.06,0
1463.0,0.59,2.58,0.05,0
1465.0,0.38,2.57,0.05,0
1467.0,0.29,2.56,0.05,0
1469.0,0.41,2.55,0.06,0
1470.0,0.53,2.53,0.05,0
1472.0,0.68,2.5,0.06,0
1474.0,0.74,2.48,0.06,0
1476.0,0.92,2.46,0.06,0
1478.0,1.31,2.44,0.05,0
1480.0,1.36,2.42,0.05,0
1482.0,1.54,2.4,0.05,0
1484.0,1.68,2.39,0.05,0
1486.0,1.61,2.38,0.05,0
1488.0,1.86,2.36,0.12,0
1490.0,2.11,2.35,0.19,0
1492.0,2.27,2.33,0.29,0
1495.0,2.15,2.3,0.4,0
1497.0,2.07,2.28,0.34,0
1499.0,2.6,2.27,0.25,0
1501.0,2.73,2.27,0.22,0
1503.0,2.43,2.26,0.08,0
1505.0,2.43,2.25,0.05,0
1507.0,2.47,2.25,0.05,0
1509.0,2.41,2.23,0.05,0
1511.0,2.04,2.19,0.05,0
1513.0,1.56,2.15,0.04,0
1514.0,1.08,2.12,0.05,0
1516.0,0.88,2.09,0.05,0
1518.0,0.38,2.07,0.04,0
1520.0,0.0,2.05,0.04,0
1522.0,0.0,2.04,0.04,0
1524.0,0.0,2.03,0.04,0
1526.0,0.0,2.02,0.04,0
1528.0,0.0,2.0,0.04,0
1530.0,0.0,1.98,0.04,0
1532.0,0.0,1.96,0.04,0
1534.0,0.0,1.96,0.04,0
1537.0,0.0,1.96,0.04,0
1539.0,0.0,1.97,0.04,0
1541.0,0.0,1.98,0.04,0
1543.0,0.0,1.98,0.04,0
1545.0,0.0,1.98,0.04,0
1547.0,0.0,1.99,0.04,0
1549.0,0.0,1.97,0.04,0
1551.0,0.0,1.95,0.04,0
1553.0,0.0,1.93,0.04,0
1555.0,0.0,1.89,0.04,0
1556.0,0.0,1.85,0.04,0
1558.0,0.0,1.82,0.04,0
1560.0,0.0,1.78,0.04,0
1562.0,0.0,1.74,0.04,0
1564.0,0.0,1.71,0.04,0
1566.0,0.0,1.68,0.04,0
1568.0,0.09,1.65,0.04,0
1570.0,0.37,1.63,0.03,0
1572.0,0.0,1.59,0.03,0
1574.0,0.0,1.55,0.03,0
1576.0,0.0,1.5,0.03,0
1579.0,0.0,1.45,0.03,0
1581.0,0.0,1.43,0.03,0
1583.0,0.0,1.42,0.03,0
1585.0,0.0,1.42,0.03,0
1587.0,0.0,1.41,0.03,0
1589.0,0.0,1.37,0.02,0
1591.0,0.0,1.32,0.03,0
1593.0,0.0,1.25,0.03,0
1595.0,0.0,1.18,0.02,0
1597.0,0.0,1.11,0.02,0
1598.0,0.0,1.07,0.02,0
1600.0,0.0,1.04,0.02,0
1602.0,0.0,1.01,0.02,0
1604.0,0.0,0.98,0.01,0
1606.0,0.0,0.93,0.01,0
1608.0,0.0,0.85,0.01,0
1610.0,0.0,0.79,0.01,0
1612.0,0.0,0.77,0.01,0
1614.0,0.0,0.76,0.01,0
1616.0,0.0,0.77,0.01,0
1618.0,0.0,0.8,0.01,0
1620.0,0.0,0.84,0.01,0
1623.0,0.0,0.89,0.01,0
1625.0,0.0,0.93,0.01,0
1627.0,0.0,0.95,0.01,0
1629.0,0.0,0.97,0.01,0
1631.0,0.0,0.96,0.02,0
1633.0,0.0,0.95,0.01,0
1635.0,0.0,0.93,0.01,0
1637.0,0.0,0.93,0.01,0
1639.0,0.0,0.93,0.01,0
1641.0,0.0,0.94,0.01,0
1642.0,0.0,0.96,0.01,0
1644.0,0.0,1.0,0.02,0
1646.0,0.0,1.03,0.02,0
1648.0,0.0,1.03,0.02,0
1650.0,0.0,1.0,0.01,0
1652.0,0.0,0.95,0.01,0
1654.0,0.0,0.89,0.01,0
1656.0,0.0,0.85,0.01,0
1658.0,0.0,0.83,0.01,0
1660.0,0.0,0.83,0.28,0
1662.0,0.0,0.85,0.68,0
1665.0,0.0,0.85,1.03,0
1667.0,0.0,0.85,1.36,0
1669.0,0.0,0.83,1.67,0
1671.0,0.0,0.76,1.98,0
1673.0,0.0,0.68,2.24,0
1675.0,0.0,0.61,2.48,0
1677.0,0.0,0.56,2.71,0
1679.0,0.32,0.55,2.95,0
1681.0,0.54,0.57,3.15,0
1683.0,0.51,0.6,3.22,0
1684.0,0.56,0.62,3.23,0
1686.0,1.16,0.63,3.22,0
1688.0,1.45,0.6,3.22,0
1690.0,1.91,0.54,3.22,0
1692.0,2.47,0.47,3.22,0
1694.0,2.53,0.41,3.22,0
1696.0,2.53,0.37,3.22,0
1698.0,2.33,0.36,3.22,0
1700.0,2.44,0.38,3.22,0
1702.0,2.4,0.44,3.22,0
1704.0,2.14,0.48,3.22,0
1707.0,2.24,0.5,3.22,0
1709.0,2.38,0.51,3.23,0
1711.0,2.17,0.52,3.22,0
1713.0,1.97,0.53,1.56,0
1715.0,1.47,0.54,1.01,0
1717.0,1.24,0.55,0.9,0
1719.0,1.28,0.56,0.64,0
1721.0,1.39,0.61,0.51,0
1723.0,1.05,0.66,0.56,0
1725.0,0.83,0.7,0.64,0
1726.0,1.1,0.75,0.58,0
1728.0,1.49,0.79,0.68,0
1730.0,1.7,0.83,0.87,0
1732.0,1.78,0.87,1.07,0
1734.0,1.92,0.93,1.22,0
1736.0,1.84,1.0,1.28,0
1738.0,2.16,1.08,1.38,0
1740.0,2.42,1.18,1.49,0
1742.0,2.99,1.28,1.54,0
1744.0,3.21,1.38,1.49,0
1746.0,3.3,1.48,1.37,0
1748.0,3.3,1.58,1.33,0
1751.0,3.3,1.67,1.35,0
1753.0,3.3,1.75,1.46,0
1755.0,3.3,1.82,1.61,0
1757.0,3.3,1.9,1.78,0
1759.0,3.3,1.98,1.97,0
1761.0,3.3,2.05,2.16,0
1763.0,3.3,2.11,2.32,0
1765.0,3.3,2.18,2.42,0
1767.0,3.3,2.25,2.52,0
1769.0,3.3,2.31,2.62,0
1770.0,3.3,2.37,2.71,0
1772.0,3.3,2.43,2.84,0
1774.0,3.3,2.48,2.98,0
1776.0,3.3,2.53,3.02,0
1778.0,3.3,2.58,3.08,0
1780.0,3.28,2.62,3.1,0
1782.0,3.11,2.66,3.16,0
1784.0,2.77,2.69,3.25,0
1786.0,2.53,2.72,3.28,0
1788.0,2.3,2.73,3.28,0
1790.0,2.31,2.75,3.28,0
1793.0,2.02,2.75,3.28,0
1795.0,2.19,2.77,3.28,0
1797.0,1.96,2.77,3.28,0
1799.0,1.78,2.79,3.28,0
1801.0,1.52,2.79,3.28,0
1803.0,1.27,2.79,3.28,0
1805.0,1.14,2.79,3.28,0
1807.0,1.23,2.78,3.28,0
1809.0,1.26,2.77,3.28,0
1811.0,1.72,2.75,3.28,0
1812.0,1.97,2.71,3.24,0
1814.0,2.01,2.68,3.17,0
1816.0,1.95,2.66,3.06,0
1818.0,1.77,2.65,2.95,0
1820.0,1.71,2.65,2.82,0
1822.0,1.52,2.65,2.68,0
1824.0,1.16,2.64,2.37,0
1826.0,1.22,2.63,2.14,0
1828.0,1.33,2.62,1.99,0
1830.0,1.67,2.6,1.87,0
1832.0,1.99,2.59,1.83,0
1835.0,2.13,2.57,1.82,0
1837.0,2.22,2.55,1.72,0
1839.0,2.55,2.52,1.6,0
1841.0,2.74,2.49,1.22,0
1843.0,3.1,2.46,0.99,0
1845.0,3.3,2.43,0.95,0
1847.0,3.3,2.39,0.93,0
1849.0,3.3,2.36,1.0,0
1851.0,3.3,2.33,1.12,0
1853.0,3.3,2.29,1.23,0
1854.0,3.3,2.27,1.37,0
1856.0,3.3,2.24,1.47,0
1858.0,3.3,2.22,1.47,0
1860.0,3.3,2.19,1.55,0
1862.0,3.3,2.17,1.52,0
1864.0,3.3,2.15,1.52,0
1866.0,3.27,2.13,1.63,0
1868.0,2.8,2.11,1.73,0
1870.0,1.75,2.08,1.82,0
1872.0,2.48,2.05,1.93,0
1874.0,3.3,2.03,2.06,0
1876.0,3.17,2.01,2.15,0
1879.0,2.6,1.99,2.22,0
1881.0,2.55,1.98,2.28,0
1883.0,2.64,1.97,2.36,0
1885.0,2.64,1.95,2.4,0
1887.0,2.74,1.94,2.41,0
1889.0,2.85,1.92,2.42,0
1891.0,2.79,1.89,2.43,0
1893.0,2.78,1.86,2.45,0
1895.0,2.93,1.84,2.48,0
1897.0,2.87,1.81,2.48,0
1898.0,2.74,1.79,2.53,0
1900.0,2.84,3.3,2.61,0
1902.0,2.88,3.24,2.61,0
1904.0,2.9,1.73,2.57,0
1906.0,3.26,1.44,2.57,0
1908.0,3.3,1.39,2.58,0
1910.0,3.3,1.37,2.59,0
1912.0,3.3,1.36,2.61,0
1914.0,3.28,1.36,2.62,0
1916.0,3.1,1.36,2.61,0
1918.0,3.03,1.39,1.52,0
1921.0,2.83,3.3,0.6,0
1923.0,2.69,3.3,0.08,0
1925.0,2.54,1.33,0.02,0
1927.0,2.36,0.56,0.0,0
1929.0,2.29,0.53,0.0,0
1931.0,2.13,0.58,0.0,0
1933.0,2.03,0.65,0.0,0
1935.0,2.01,0.7,0.01,0
1937.0,2.1,0.75,0.01,0
1939.0,1.97,3.3,0.47,0
1940.0,1.77,3.3,0.8,0
1942.0,1.52,3.3,1.11,0
1944.0,1.29,3.3,1.39,0
1946.0,1.26,1.93,2.1,0
1948.0,1.18,0.0,2.8,0
1950.0,1.14,0.0,3.04,0
1952.0,1.0,0.0,3.18,0
1954.0,0.78,0.0,3.21,0
1956.0,0.49,3.3,3.3,0
1958.0,0.22,3.3,3.3,0
1960.0,0.0,3.3,3.25,0
1963.0,0.0,3.3,3.19,0
1965.0,0.0,3.3,2.91,0
1967.0,0.0,3.3,2.75,0
1969.0,0.0,0.0,2.47,0
1971.0,0.0,0.0,2.37,0
1973.0,0.0,0.0,2.26,0
1975.0,0.0,3.3,2.24,0
1977.0,0.0,3.3,1.69,0
1979.0,0.0,3.3,0.28,0
1981.0,0.0,3.3,0.08,0
1982.0,0.0,3.3,0.08,0
1984.0,0.0,3.3,0.08,0
1986.0,0.0,3.3,0.15,0
1988.0,0.0,3.3,0.37,0
1990.0,0.0,3.3,0.5,0
1992.0,0.0,3.3,0.61,0
1994.0,0.08,3.3,0.75,0
1996.0,0.74,3.3,0.94,0
1998.0,0.89,3.3,1.02,0
2000.0,0.99,3.3,1.09,0
2002.0,0.93,3.3,1.24,0
2004.0,0.23,3.3,1.43,0
2007.0,0.46,3.3,1.62,0
2009.0,0.69,3.3,1.75,0
2011.0,0.16,3.3,1.79,0
2013.0,0.0,3.3,1.85,0
2015.0,0.0,3.3,1.96,0
2017.0,0.01,3.3,2.03,0
2019.0,0.0,3.3,2.13,0
2021.0,0.18,3.3,2.18,0
2023.0,0.23,3.3,2.29,0
2025.0,0.38,3.3,2.37,0
2026.0,0.0,3.3,2.48,0
2028.0,0.16,3.3,2.57,0
2030.0,1.18,3.3,2.62,0
2032.0,1.89,3.3,2.72,0
2034.0,1.35,3.3,2.76,0
2036.0,0.97,3.3,2.78,0
2038.0,1.13,3.3,2.83,0
2040.0,1.59,3.3,2.85,0
2042.0,2.32,3.3,2.85,0
2044.0,2.48,3.3,2.82,0
2046.0,3.19,3.3,2.81,0
2049.0,3.3,3.3,2.8,0
2051.0,3.22,3.3,2.84,0
2053.0,3.3,3.3,2.83,0
2055.0,3.3,3.3,2.83,0
2057.0,3.3,3.3,2.84,0
2059.0,3.12,3.3,2.83,0
2061.0,2.66,3.3,2.78,0
2063.0,2.04,3.3,2.72,0
2065.0,0.69,3.3,2.67,0
2067.0,0.22,3.3,2.65,0
2068.0,0.4,3.3,2.61,0
2070.0,0.69,3.3,2.53,0
2072.0,1.24,3.3,2.46,0
2074.0,1.44,3.3,2.43,0
2076.0,1.56,3.3,2.39,0
2078.0,1.23,3.3,2.35,0
2080.0,0.83,3.3,2.3,0
2082.0,1.13,3.3,2.26,0
2084.0,1.47,3.3,2.2,0
2086.0,1.52,3.3,2.14,0
2088.0,1.15,3.3,2.07,0
2091.0,0.91,3.3,2.03,0
2093.0,0.84,3.3,2.0,0
2095.0,0.8,3.3,1.95,0
2097.0,0.89,3.3,1.85,0
2099.0,1.17,3.3,1.8,0
2101.0,1.16,3.3,1.74,0
2103.0,0.88,3.3,1.7,0
2105.0,0.5,3.3,1.7,0
2107.0,0.37,3.3,1.67,0
2109.0,0.38,3.3,1.65,0
2110.0,0.49,3.3,1.62,0
2112.0,0.75,3.3,1.69,0
2114.0,1.13,3.3,1.92,0
2116.0,1.07,3.3,2.33,0
2118.0,1.05,3.3,2.68,0
2120.0,0.93,3.3,2.94,0
2122.0,0.79,3.3,3.08,0
2124.0,0.76,3.3,3.18,0
2126.0,0.92,3.3,3.28,0
2128.0,1.16,3.3,3.3,0
2130.0,1.04,3.3,3.3,0
2132.0,0.9,3.3,3.3,0
2135.0,0.72,3.3,3.29,0
2137.0,0.95,3.3,3.21,0
2139.0,1.35,3.3,3.12,0
2141.0,1.34,3.3,2.99,0
2143.0,1.32,3.3,2.87,0
2145.0,1.21,3.3,2.73,0
2147.0,1.17,3.3,2.65,0
2149.0,0.86,3.3,2.58,0
2151.0,1.15,3.3,2.48,0
2153.0,1.09,3.3,2.37,0
2154.0,0.97,3.3,2.25,0
2156.0,1.04,3.3,2.1,0
2158.0,0.85,3.3,1.99,0
2160.0,0.57,3.3,1.85,0
2162.0,0.34,3.3,1.74,0
2164.0,0.0,3.3,1.66,0
2166.0,0.0,3.3,1.59,0
2168.0,0.0,3.3,1.53,0
2170.0,0.0,3.3,1.46,0
2172.0,0.06,3.3,1.42,0
2174.0,0.5,3.3,1.4,0
2177.0,0.37,3.3,1.39,0
2179.0,0.89,3.3,1.39,0
2181.0,1.74,3.3,1.37,0
2183.0,2.33,3.3,1.39,0
2185.0,1.67,3.3,1.4,0
2187.0,1.74,3.3,1.39,0
2189.0,2.49,3.3,1.39,0
2191.0,2.39,3.3,1.41,0
2193.0,2.23,3.3,1.47,0
2195.0,2.43,3.3,1.51,0
2196.0,3.17,3.3,1.53,0
2198.0,3.3,3.3,1.55,0
2200.0,3.3,3.3,1.59,0
2202.0,3.3,3.3,1.65,0
2204.0,3.3,3.3,1.7,0
2206.0,3.3,3.3,1.73,0
2208.0,3.3,3.3,1.78,0
2210.0,3.3,3.3,1.84,0
2212.0,3.3,3.3,1.88,0
2214.0,3.13,3.3,1.94,0
2216.0,2.0,3.3,1.99,0
2219.0,1.91,3.3,2.01,0
2221.0,1.65,3.3,2.03,0
2223.0,1.32,3.3,2.03,0
2225.0,1.51,3.3,2.06,0
2227.0,2.02,3.3,2.09,0
2229.0,2.55,3.3,2.1,0
2231.0,3.06,3.3,2.16,0
2233.0,3.3,3.3,2.2,0
2235.0,3.3,3.3,2.26,0
2237.0,3.3,3.3,2.32,0
2238.0,3.12,3.3,2.35,0
2240.0,2.84,3.3,2.33,0
2242.0,2.29,3.3,2.33,0
2244.0,2.11,3.3,2.35,0
2246.0,2.17,3.3,2.36,0
2248.0,2.09,3.3,2.36,0
2250.0,2.1,3.3,2.35,0
2252.0,2.17,3.3,2.34,0
2254.0,2.09,3.3,2.33,0
2256.0,1.86,3.3,2.33,0
2258.0,1.92,3.3,2.34,0
2260.0,1.82,3.3,2.31,0
2263.0,1.73,3.3,2.28,0
2265.0,1.61,3.3,2.25,0
2267.0,1.61,3.3,2.25,0
2269.0,1.79,3.3,2.25,0
2271.0,1.83,3.3,2.25,0
2273.0,1.83,3.3,2.29,0
2275.0,1.84,3.3,2.33,0
2277.0,1.85,3.3,2.38,0
2279.0,1.83,3.3,2.39,0
2281.0,1.89,3.3,2.38,0
2282.0,1.83,3.3,2.39,0
2284.0,1.86,3.3,2.38,0
2286.0,2.1,3.3,2.36,0
2288.0,2.09,3.3,2.34,0
2290.0,1.96,3.3,2.35,0
2292.0,1.74,3.3,2.35,0
2294.0,1.85,3.3,2.33,0
2296.0,1.79,3.3,2.32,0
2298.0,1.71,3.3,2.33,0
2300.0,1.65,3.3,2.32,0
2302.0,1.71,3.3,2.27,0
2305.0,1.38,3.3,2.26,0
2307.0,1.29,3.3,2.25,0
2309.0,1.35,0.0,2.12,0
2311.0,1.37,0.0,2.1,0
2313.0,1.12,0.0,2.06,0
2315.0,0.83,3.3,2.15,0
2317.0,0.66,3.3,2.17,0
2319.0,0.85,3.3,2.17,0
2321.0,1.13,3.3,2.13,0
2323.0,1.5,3.3,2.06,0
2324.0,1.68,3.3,2.02,0
2326.0,1.72,2.75,1.96,0
2328.0,1.45,0.0,1.85,0
2330.0,1.32,0.0,1.85,0
2332.0,1.63,0.0,1.85,0
2334.0,1.59,3.3,1.95,0
2336.0,1.29,3.3,1.92,0
2338.0,0.98,3.3,1.9,0
2340.0,0.75,3.3,1.85,0
2342.0,0.6,3.3,1.82,0
2344.0,0.0,3.3,1.81,0
2347.0,0.0,3.3,1.84,0
2349.0,0.0,0.0,1.76,0
2351.0,0.21,0.0,1.76,0
2353.0,0.16,0.0,1.76,0
2355.0,0.24,3.3,1.86,0
2357.0,0.29,3.3,1.82,0
2359.0,0.39,3.3,1.77,0
2361.0,0.63,3.3,1.73,0
2363.0,0.67,3.3,1.67,0
2365.0,0.46,3.3,1.62,0
2366.0,0.3,0.0,1.51,0
2368.0,0.15,0.0,1.54,0
2370.0,0.23,0.0,1.57,0
2372.0,0.38,0.0,1.63,0
2374.0,0.5,0.0,1.73,0
2376.0,0.68,3.3,1.89,0
2378.0,0.91,3.3,1.96,0
2380.0,0.92,3.3,1.98,0
2382.0,0.92,3.3,1.97,0
2384.0,0.97,0.0,1.85,0
2386.0,1.26,0.0,1.83,0
2388.0,1.28,0.0,1.8,0
2391.0,1.23,0.0,1.82,0
2393.0,1.29,0.0,1.82,0
2395.0,1.46,0.0,1.81,0
2397.0,1.55,0.73,1.86,0
2399.0,1.54,3.3,1.94,0
2401.0,1.6,3.3,1.94,0
2403.0,1.48,3.3,1.88,0
2405.0,1.42,0.0,1.72,0
2407.0,1.39,0.0,1.68,0
2409.0,1.3,0.0,1.62,0
2410.0,1.14,0.0,1.56,0
2412.0,1.25,0.0,1.5,0
2414.0,1.29,0.0,1.47,0
2416.0,1.39,2.32,1.53,0
2418.0,1.41,3.3,1.49,0
2420.0,1.29,3.3,1.42,0
2422.0,1.32,3.3,1.35,0
2424.0,1.63,0.0,1.2,0
2426.0,1.63,0.0,1.18,0
2428.0,1.44,0.0,1.14,0
2430.0,1.33,0.0,1.12,0
2433.0,1.04,0.0,1.07,0
2435.0,1.05,0.0,1.0,0
2437.0,1.21,2.11,1.02,0
2439.0,1.24,3.3,1.0,0
2441.0,1.39,3.3,0.97,0
2443.0,1.59,3.3,0.95,0
2445.0,1.67,0.0,0.81,0
2447.0,1.73,0.0,0.8,0
2449.0,1.78,0.0,0.78,0
2451.0,1.89,0.0,0.78,0
2452.0,1.95,0.0,0.8,0
2454.0,1.87,0.0,0.85,0
2456.0,1.79,2.74,0.99,0
2458.0,1.78,3.3,1.07,0
2460.0,1.84,3.3,1.1,0
2462.0,1.84,3.3,1.06,0
2464.0,1.72,0.01,0.97,0
2466.0,1.7,0.0,0.98,0
2468.0,1.69,0.0,1.0,0
2470.0,1.64,0.0,1.03,0
2472.0,1.62,0.0,1.05,0
2475.0,1.63,0.0,1.09,0
2477.0,1.61,3.3,1.22,0
2479.0,1.69,3.3,1.25,0
2481.0,1.88,3.3,1.21,0
2483.0,1.97,3.3,1.18,0
2485.0,2.04,1.26,1.11,0
2487.0,2.05,0.0,1.1,0
2489.0,2.23,0.0,1.1,0
2491.0,2.35,0.0,1.11,0
2493.0,2.42,0.0,1.1,0
2494.0,2.4,0.0,1.11,0
2496.0,2.44,3.3,1.22,0
2498.0,2.39,3.3,1.22,0
2500.0,2.3,3.3,1.21,0
2502.0,2.48,3.3,1.18,0
2504.0,2.57,1.0,1.08,0
2506.0,2.67,0.0,1.03,0
2508.0,2.85,0.0,1.02,0
2510.0,2.88,0.0,1.0,0
2512.0,2.85,0.0,0.96,0
2514.0,2.93,0.0,0.95,0
2516.0,2.85,3.3,1.06,0
2519.0,2.66,3.3,1.07,0
2521.0,2.45,3.3,1.08,0
2523.0,2.39,3.3,1.09,0
2525.0,2.34,2.75,1.07,0
2527.0,2.4,0.0,0.96,0
2529.0,2.3,0.0,0.94,0
2531.0,2.22,0.0,0.95,0
2533.0,2.16,0.0,1.02,0
2535.0,2.08,0.1,1.11,0
2537.0,2.06,3.3,1.26,0
2538.0,2.09,3.3,1.32,0
2540.0,2.19,3.3,1.36,0
2542.0,2.19,3.3,1.38,0
2544.0,2.26,3.26,1.43,0
2546.0,2.26,0.0,1.37,0
2548.0,2.21,0.0,1.42,0
2550.0,2.05,0.0,1.47,0
2552.0,1.94,0.0,1.51,0
2554.0,1.94,1.42,1.61,0
2556.0,1.72,3.3,1.7,0
2558.0,1.6,3.3,1.74,0
2561.0,1.63,3.3,1.76,0
2563.0,1.66,3.3,1.79,0
2565.0,1.67,3.3,1.83,0
2567.0,1.66,0.0,1.8,0
2569.0,1.75,0.0,1.87,0
2571.0,1.65,0.0,1.97,0
2573.0,1.63,0.0,2.12,0
2575.0,1.59,3.3,2.37,0
2577.0,1.6,3.3,2.46,0
2579.0,1.52,3.3,2.53,0
2580.0,1.4,3.3,2.65,0
2582.0,1.4,3.3,2.89,0
2584.0,1.41,3.3,3.06,0
2586.0,1.52,0.25,3.02,0
2588.0,1.64,0.0,3.03,0
2590.0,1.49,0.0,3.05,0
2592.0,1.35,0.0,3.01,0
2594.0,1.52,3.3,3.08,0
2596.0,1.56,3.3,3.05,0
2598.0,1.47,3.3,3.03,0
2600.0,1.45,3.3,3.03,0
2603.0,1.44,3.3,3.01,0
2605.0,1.46,3.3,3.1,0
2607.0,1.53,0.67,2.89,0
2609.0,1.61,0.0,2.78,0
2611.0,1.63,0.0,2.77,0
2613.0,1.71,0.0,2.85,0
2615.0,1.71,3.3,2.9,0
2617.0,1.71,3.3,2.85,0
2619.0,1.73,3.3,2.76,0
2621.0,1.72,3.3,2.64,0
2623.0,1.7,3.3,2.58,0
2624.0,1.74,3.3,2.45,0
2626.0,1.81,0.0,2.21,0
2628.0,1.82,0.0,2.11,0
2630.0,1.84,0.0,2.21,0
2632.0,1.83,0.0,2.32,0
2634.0,1.79,1.83,2.33,0
2636.0,1.86,3.3,2.4,0
2638.0,1.8,3.3,2.45,0
2640.0,1.74,3.3,2.5,0
2642.0,1.75,3.3,2.51,0
2644.0,1.7,0.72,2.36,0
2647.0,1.65,0.0,2.28,0
2649.0,1.7,0.0,2.25,0
2651.0,1.68,0.0,2.6,0
2653.0,1.64,0.0,2.68,0
2655.0,1.59,0.0,2.57,0
2657.0,1.52,3.3,2.48,0
2659.0,1.42,3.3,2.38,0
2661.0,1.36,3.3,2.38,0
2663.0,1.27,3.3,2.33,0
2665.0,1.23,0.0,2.22,0
2666.0,1.38,0.0,2.21,0
2668.0,1.52,0.0,2.1,0
2670.0,1.54,0.0,2.02,0
2672.0,1.51,0.0,1.98,0
2674.0,1.56,0.0,1.93,0
2676.0,1.6,3.3,1.95,0
2678.0,1.55,3.3,1.89,0
2680.0,1.55,3.3,1.85,0
2682.0,1.57,3.3,1.79,0
2684.0,1.77,0.0,1.62,0
2686.0,1.95,0.0,1.41,0
2689.0,2.05,0.0,1.34,0
2691.0,2.01,0.0,1.38,0
2693.0,2.0,0.0,1.38,0
2695.0,1.95,0.0,1.4,0
2697.0,1.9,2.5,1.51,0
2699.0,1.85,3.3,1.57,0
2701.0,1.86,3.3,1.62,0
2703.0,1.85,3.3,1.75,0
2705.0,1.89,0.0,1.77,0
2707.0,1.98,0.0,1.89,0
2708.0,1.92,0.0,1.96,0
2710.0,1.71,0.0,1.95,0
2712.0,1.53,0.0,1.95,0
2714.0,1.46,0.0,1.99,0
2716.0,1.41,2.86,2.14,0
2718.0,1.27,3.3,2.25,0
2720.0,1.16,3.3,2.26,0
2722.0,1.14,3.3,2.26,0
2724.0,1.17,0.0,2.15,0
2726.0,1.21,0.0,2.15,0
2728.0,1.25,0.0,2.1,0
2731.0,1.25,0.0,2.05,0
2733.0,1.23,0.0,2.01,0
2735.0,1.24,0.0,1.99,0
2737.0,1.23,3.3,2.05,0
2739.0,1.25,3.3,2.0,0
2741.0,1.23,3.3,1.99,0
2743.0,1.21,3.3,1.99,0
2745.0,1.18,0.0,1.85,0
2747.0,1.19,0.0,1.84,0
2749.0,1.23,0.0,1.82,0
2751.0,1.23,0.0,1.78,0
2752.0,1.15,0.0,1.73,0
2754.0,1.12,0.0,1.72,0
2756.0,1.1,3.3,1.83,0
2758.0,1.1,3.3,1.81,0
2760.0,1.05,3.3,1.73,0
2762.0,1.03,3.3,1.61,0
2764.0,1.1,0.0,1.53,0
2766.0,1.11,0.0,1.61,0
2768.0,1.19,0.0,1.67,0
2770.0,1.19,0.0,1.72,0
2772.0,1.16,0.0,1.8,0
2775.0,1.01,0.0,1.91,0
2777.0,0.92,3.25,2.12,0
2779.0,0.95,3.3,2.18,0
2781.0,1.0,3.3,2.23,0
2783.0,0.95,3.3,2.32,0
2785.0,0.95,0.0,2.31,0
2787.0,0.88,0.0,2.38,0
2789.0,0.86,0.0,2.32,0
2791.0,0.86,0.0,0.3,0
2793.0,0.87,0.0,0.0,0
2794.0,0.87,0.0,0.0,0
2796.0,0.92,3.3,0.08,0
2798.0,0.93,3.3,0.08,0
2800.0,0.93,3.3,0.08,0
2802.0,0.95,3.3,0.08,0
2804.0,1.01,3.3,0.08,0
2806.0,1.06,0.0,0.0,0
2808.0,1.13,0.0,0.0,0
2810.0,1.12,0.0,0.0,0
2812.0,1.16,0.0,0.0,0
2814.0,1.14,2.1,0.29,0
2817.0,1.09,3.3,0.48,0
2819.0,1.08,3.3,0.77,0
2821.0,1.06,3.3,1.15,0
2823.0,1.05,3.3,1.58,0
2825.0,1.06,3.3,2.0,0
2827.0,1.08,1.36,2.27,0
2829.0,1.14,0.0,2.48,0
2831.0,1.16,0.0,2.55,0
2833.0,1.15,0.0,2.68,0
2835.0,1.04,0.68,3.06,0
2836.0,1.06,3.3,3.3,0
2838.0,1.05,3.3,3.3,0
2840.0,1.03,3.3,3.3,0
2842.0,1.07,3.3,3.3,0
2844.0,1.09,3.3,3.3,0
2846.0,1.09,0.0,3.19,0
2848.0,1.14,0.0,3.2,0
2850.0,1.14,0.0,3.21,0
2852.0,1.14,0.0,3.22,0
2854.0,1.04,0.0,3.21,0
2856.0,0.95,3.3,3.3,0
2859.0,0.87,3.3,3.3,0
2861.0,1.01,3.3,3.3,0
2863.0,1.05,3.3,3.3,0
2865.0,1.01,3.3,3.3,0
2867.0,1.02,0.0,3.21,0
2869.0,1.1,0.0,3.21,0
2871.0,1.16,0.0,3.21,0
2873.0,1.18,0.0,3.21,0
2875.0,1.15,0.0,3.21,0
2877.0,1.1,3.28,3.3,0
2879.0,1.09,3.3,3.3,0
2880.0,1.07,3.3,3.22,0
2882.0,1.07,3.3,3.08,0
2884.0,1.04,3.29,2.86,0
2886.0,1.04,0.0,2.54,0
2888.0,1.1,0.0,2.22,0
2890.0,1.15,0.0,1.95,0
2892.0,1.16,0.0,1.77,0
2894.0,1.09,0.0,1.56,0
2896.0,1.01,1.64,1.36,0
2898.0,1.02,3.3,1.2,0
2900.0,1.03,3.3,1.07,0
2903.0,1.04,3.3,0.97,0
2905.0,1.08,2.63,0.8,0
2907.0,1.07,0.0,0.63,0
2909.0,1.09,0.0,0.53,0
2911.0,1.1,0.0,0.41,0
2913.0,1.23,0.0,0.35,0
2915.0,1.21,0.0,0.33,0
2917.0,1.15,1.38,0.35,0
2919.0,1.12,3.3,0.34,0
2921.0,1.17,3.3,0.28,0
2922.0,1.24,3.3,0.26,0
2924.0,1.28,2.61,0.14,0
2926.0,1.32,0.0,0.0,0
2928.0,1.37,0.0,0.0,0
2930.0,1.33,0.0,0.0,0
2932.0,1.32,0.0,0.0,0
2934.0,1.28,0.0,0.0,0
2936.0,1.32,1.23,0.05,0
2938.0,1.32,3.3,0.08,0
2940.0,1.26,3.3,0.08,0
2942.0,1.35,3.3,0.34,0
2945.0,1.5,2.9,0.48,0
2947.0,1.53,0.0,0.47,0
2949.0,1.6,0.0,0.52,0
2951.0,1.63,0.0,0.55,0
2953.0,1.65,0.0,0.56,0
2955.0,1.57,0.0,0.57,0
2957.0,1.52,1.29,0.6,0
2959.0,1.46,3.3,0.56,0
2961.0,1.41,3.3,0.5,0
2963.0,1.48,3.3,0.45,0
2964.0,1.54,3.3,0.43,0
2966.0,1.54,0.0,0.33,0
2968.0,1.54,0.0,0.3,0
2970.0,1.54,0.0,0.22,0
2972.0,1.59,0.0,0.19,0
2974.0,1.57,0.0,0.23,0
2976.0,1.58,3.3,0.3,0
2978.0,1.54,3.3,0.26,0
2980.0,1.51,3.3,0.22,0
2982.0,1.49,3.3,0.23,0
2984.0,1.49,3.3,0.25,0
2987.0,1.54,0.19,0.16,0
2989.0,1.6,0.0,0.23,0
2991.0,1.61,0.0,0.31,0
2993.0,1.66,0.0,0.19,0
2995.0,1.62,3.3,0.1,0
2997.0,1.55,3.3,0.06,0
2999.0,1.57,3.3,0.07,0
3001.0,1.61,3.3,0.07,0
3003.0,1.61,3.3,0.07,0
3005.0,1.57,3.3,0.04,0
3007.0,1.55,0.69,0.0,0
3008.0,1.59,0.0,0.0,0
3010.0,1.62,0.0,0.0,0
3012.0,1.62,0.0,0.0,0
3014.0,1.64,0.86,0.01,0
3016.0,1.54,3.3,0.03,0
3018.0,1.47,3.3,0.04,0
3020.0,1.52,3.3,0.04,0
3022.0,1.53,3.3,0.04,0
3024.0,1.55,1.03,0.0,0
3026.0,1.56,0.0,0.0,0
3028.0,1.62,0.0,0.0,0
3031.0,1.63,0.0,0.0,0
3033.0,1.6,0.0,0.0,0
3035.0,1.52,0.0,0.0,0
3037.0,1.49,3.3,0.04,0
3039.0,1.46,3.3,0.04,0
3041.0,1.42,3.3,0.04,0
3043.0,1.44,3.3,0.05,0
3045.0,1.47,0.85,0.0,0
3047.0,1.51,0.0,0.0,0
3049.0,1.52,0.0,0.0,0
3050.0,1.51,0.0,0.0,0
3052.0,1.52,0.0,0.0,0
3054.0,1.49,0.16,0.0,0
3056.0,1.47,3.3,0.05,0
3058.0,1.45,3.3,0.04,0
3060.0,1.38,3.3,0.04,0
3062.0,1.36,3.3,0.04,0
3064.0,1.39,3.3,0.05,0
3066.0,1.42,0.0,0.0,0
3068.0,1.46,0.0,0.0,0
3070.0,1.47,0.0,0.0,0
3073.0,1.47,0.0,0.0,0
3075.0,1.44,3.3,0.04,0
3077.0,1.36,3.3,0.04,0
3079.0,1.26,3.3,0.05,0
3081.0,1.24,3.3,0.04,0
3083.0,1.3,3.3,0.04,0
3085.0,1.35,3.3,0.05,0
3087.0,1.39,0.0,0.0,0
3089.0,1.4,0.0,0.0,0
3091.0,1.43,0.0,0.0,0
3092.0,1.45,0.0,0.0,0
3094.0,1.39,3.3,0.05,0
3096.0,1.31,3.3,0.07,0
3098.0,1.3,3.3,0.06,0
3100.0,1.29,3.3,0.06,0
3102.0,1.27,3.3,0.05,0
3104.0,1.25,3.3,0.06,0
3106.0,1.3,0.25,0.0,0
3108.0,1.28,0.0,0.0,0
3110.0,1.26,0.0,0.0,0
3112.0,1.22,0.53,0.03,0
3115.0,1.16,3.3,0.15,0
3117.0,1.13,3.3,0.25,0
3119.0,1.15,3.3,0.27,0
3121.0,1.21,3.3,0.28,0
3123.0,1.2,3.3,0.28,0
3125.0,1.25,3.3,0.28,0
3127.0,1.31,0.65,0.22,0
3129.0,1.34,0.0,0.21,0
3131.0,1.35,0.0,0.17,0
3133.0,1.36,0.0,0.13,0
3135.0,1.3,3.3,0.24,0
3136.0,1.28,3.3,0.29,0
3138.0,1.31,3.3,0.38,0
3140.0,1.28,3.3,0.44,0
3142.0,1.31,3.3,0.48,0
3144.0,1.38,3.3,0.49,0
3146.0,1.34,1.34,0.44,0
3148.0,1.33,0.0,0.46,0
3150.0,1.33,0.0,0.51,0
3152.0,1.3,0.0,0.58,0
3154.0,1.18,3.3,0.7,0
3156.0,1.05,3.3,0.71,0
3159.0,1.04,3.3,0.67,0
3161.0,1.13,3.3,0.62,0
3163.0,1.2,3.3,0.59,0
3165.0,1.23,3.3,0.6,0
3167.0,1.29,1.68,0.54,0
3169.0,1.34,0.0,0.51,0
3171.0,1.31,0.0,0.58,0
3173.0,1.34,0.83,0.72,0
3175.0,1.37,3.3,0.89,0
3177.0,1.4,3.3,0.96,0
3178.0,1.38,3.3,1.05,0
3180.0,1.41,3.3,1.12,0
3182.0,1.45,3.3,1.19,0
3184.0,1.53,3.3,1.21,0
3186.0,1.64,3.3,1.29,0
3188.0,1.75,3.3,1.35,0
3190.0,1.78,3.3,1.4,0
3192.0,1.74,3.3,1.46,0
3194.0,1.7,3.3,1.54,0
3196.0,1.77,3.3,1.62,0
3198.0,1.86,3.3,1.61,0
3201.0,2.01,3.3,1.62,0
3203.0,2.05,3.3,1.65,0
3205.0,2.0,3.3,1.68,0
3207.0,2.0,3.3,1.63,0
3209.0,2.2,0.0,1.46,0
3211.0,2.21,0.0,1.46,0
3213.0,2.18,1.47,1.59,0
3215.0,2.22,3.3,1.69,0
3217.0,2.22,3.3,1.64,0
3219.0,2.26,3.3,1.5,0
3220.0,2.2,3.3,1.39,0
3222.0,2.15,3.3,1.36,0
3224.0,2.13,3.3,1.39,0
3226.0,2.08,0.0,1.27,0
3228.0,2.06,0.0,1.28,0
3230.0,1.95,0.0,1.3,0
3232.0,1.84,0.0,1.3,0
3234.0,1.77,3.3,1.42,0
3236.0,1.68,3.3,1.47,0
3238.0,1.65,3.3,1.48,0
3240.0,1.58,3.3,1.46,0
3243.0,1.49,3.3,1.48,0
3245.0,1.44,0.0,1.44,0
3247.0,1.41,0.0,1.49,0
3249.0,1.53,0.0,1.59,0
3251.0,1.51,0.0,1.69,0
3253.0,1.44,0.0,1.71,0
3255.0,1.34,3.3,1.8,0
3257.0,1.29,3.3,1.89,0
3259.0,1.22,3.3,1.95,0
3261.0,1.23,3.3,1.99,0
3263.0,1.24,3.3,2.03,0
3264.0,1.25,3.3,2.05,0
3266.0,1.26,2.02,1.97,0
3268.0,1.3,0.0,2.01,0
3270.0,1.35,0.0,2.07,0
3272.0,1.29,1.9,2.14,0
3274.0,1.23,3.3,2.22,0
3276.0,1.19,3.3,2.27,0
3278.0,1.12,3.3,2.29,0
3280.0,1.17,3.3,2.3,0
3282.0,1.19,3.3,2.32,0
3284.0,1.19,3.3,2.37,0
3287.0,1.22,3.3,2.42,0
3289.0,1.29,0.0,2.42,0
3291.0,1.27,0.05,2.39,0
3293.0,1.27,3.3,2.5,0
3295.0,1.16,3.3,2.6,0
3297.0,1.12,3.3,2.68,0
3299.0,1.1,3.3,2.72,0
3301.0,1.11,3.3,2.66,0
3303.0,1.1,3.3,2.63,0
3305.0,1.12,3.3,2.62,0
3306.0,1.15,3.3,2.65,0
3308.0,1.24,1.82,2.73,0
3310.0,1.27,3.3,2.82,0
3312.0,1.3,3.3,2.84,0
3314.0,1.21,3.3,2.83,0
3316.0,1.09,3.3,2.8,0
3318.0,1.02,3.3,2.67,0
3320.0,1.08,3.3,2.56,0
3322.0,1.17,3.3,2.48,0
3324.0,1.21,3.3,2.41,0
3326.0,1.26,3.3,2.35,0
3329.0,1.27,3.3,2.24,0
3331.0,1.25,3.3,2.15,0
3333.0,1.22,3.3,2.04,0
3335.0,1.16,3.3,1.91,0
3337.0,1.13,3.3,1.75,0
3339.0,1.09,3.3,1.7,0
3341.0,1.09,3.3,1.67,0
3343.0,1.12,3.3,1.6,0
3345.0,1.26,3.3,1.58,0
3347.0,1.31,3.3,1.61,0
3348.0,1.29,3.3,1.65,0
3350.0,1.17,3.3,1.72,0
3352.0,1.24,3.05,1.72,0
3354.0,1.28,2.57,1.71,0
3356.0,1.21,2.1,1.7,0
3358.0,1.14,1.67,1.65,0
3360.0,1.13,1.27,1.61,0
3362.0,1.12,0.87,1.57,0
3364.0,1.11,0.5,1.62,0
3366.0,1.06,0.14,1.63,0
3368.0,1.04,0.0,1.77,0
3371.0,0.95,0.0,2.01,0
3373.0,0.81,0.0,2.21,0
3375.0,0.64,0.0,2.28,0
3377.0,0.65,0.0,2.39,0
3379.0,0.65,0.0,2.53,0
3381.0,0.6,0.0,2.63,0
3383.0,0.64,0.0,2.62,0
3385.0,0.68,0.0,2.59,0
3387.0,0.64,0.0,2.62,0
3389.0,0.73,0.0,2.65,0
3391.0,0.76,0.0,2.68,0
3392.0,0.72,0.0,2.71,0
3394.0,0.63,0.0,2.77,0
3396.0,0.5,0.0,2.78,0
3398.0,0.48,0.0,2.72,0
3400.0,0.46,0.0,2.7,0
3402.0,0.41,0.0,2.66,0
3404.0,0.5,0.0,2.74,0
3406.0,0.61,0.0,2.77,0
3408.0,0.63,0.0,2.78,0
3410.0,0.57,0.0,2.75,0
3412.0,0.46,0.0,2.75,0
3415.0,0.39,0.0,2.79,0
3417.0,0.39,0.0,2.73,0
3419.0,0.32,0.0,2.69,0
3421.0,0.4,0.0,2.64,0
3423.0,0.6,0.0,2.63,0
3425.0,0.75,0.0,2.56,0
3427.0,0.66,0.0,2.52,0
3429.0,0.8,0.0,2.51,0
3431.0,0.88,0.0,2.53,0
3433.0,0.96,0.0,2.55,0
3434.0,0.95,0.0,2.55,0
3436.0,0.89,0.0,2.52,0
3438.0,0.9,0.0,2.52,0
3440.0,0.93,0.0,2.55,0
3442.0,0.96,0.0,2.47,0
3444.0,1.01,0.0,2.44,0
3446.0,1.04,0.0,2.34,0
3448.0,1.02,0.0,2.26,0
3450.0,1.04,0.0,2.25,0
3452.0,1.03,0.0,2.19,0
3454.0,0.95,0.0,2.19,0
3457.0,0.96,0.0,2.21,0
3459.0,0.96,0.0,2.17,0
3461.0,1.03,0.0,2.12,0
3463.0,1.11,0.0,2.13,0
3465.0,1.17,0.0,2.1,0
3467.0,1.26,0.0,2.11,0
3469.0,1.35,0.0,2.11,0
3471.0,1.42,0.0,2.14,0
3473.0,1.4,0.0,2.15,0
3475.0,1.32,0.0,2.19,0
3476.0,1.26,0.0,2.27,0
3478.0,1.21,0.0,2.3,0
3480.0,1.18,0.0,2.25,0
3482.0,1.18,0.0,2.23,0
3484.0,1.25,0.0,2.54,0
3486.0,1.32,0.0,2.75,0
3488.0,1.44,0.0,2.93,0
3490.0,1.46,0.0,3.01,0
3492.0,1.47,0.0,3.05,0
3494.0,1.35,0.0,3.0,0
3496.0,1.39,0.0,2.97,0
3499.0,1.45,0.0,2.93,0
3501.0,1.53,0.0,2.87,0
3503.0,1.57,0.0,2.92,0
3505.0,1.63,0.0,2.99,0
3507.0,1.76,0.0,2.95,0
3509.0,1.9,0.0,2.9,0
3511.0,1.93,0.0,2.96,0
3513.0,1.91,0.0,3.07,0
3515.0,1.92,0.0,3.13,0
3517.0,1.9,0.0,3.15,0
3519.0,1.9,0.0,3.13,0
3520.0,1.95,0.0,3.13,0
3522.0,1.98,0.0,3.13,0
3524.0,2.05,0.0,3.11,0
3526.0,2.19,0.0,3.05,0
3528.0,2.25,0.0,2.88,0
3530.0,2.22,0.0,2.8,0
3532.0,2.17,0.0,2.74,0
3534.0,2.16,0.0,2.77,0
3536.0,2.15,0.0,2.86,0
3538.0,2.17,0.0,2.94,0
3540.0,2.18,0.0,3.05,0
3543.0,2.15,0.0,3.08,0
3545.0,2.13,0.0,3.01,0
3547.0,2.07,0.0,3.17,0
3549.0,2.11,0.0,3.22,0
3551.0,2.21,0.0,3.22,0
3553.0,2.15,0.0,3.24,0
3555.0,2.06,0.0,3.24,0
3557.0,1.98,0.0,3.24,0
3559.0,1.92,0.0,3.23,0
3561.0,1.87,0.0,3.24,0
3562.0,1.87,0.0,3.24,0
3564.0,1.9,0.0,3.23,0
3566.0,1.93,0.0,3.14,0
3568.0,1.96,0.0,2.95,0
3570.0,1.86,0.0,2.87,0
3572.0,1.75,0.0,2.93,0
3574.0,1.61,0.0,2.9,0
3576.0,1.53,0.0,2.86,0
3578.0,1.5,0.0,2.81,0
3580.0,1.53,0.0,2.63,0
3582.0,1.53,0.0,2.51,0
3585.0,1.52,0.0,2.47,0
3587.0,1.54,0.0,2.44,0
3589.0,1.61,0.0,2.44,0
3591.0,1.61,0.0,2.48,0
3593.0,1.53,0.0,2.49,0
3595.0,1.4,0.0,2.61,0
3597.0,1.39,0.0,2.71,0
3599.0,1.38,0.0,2.86,0
3601.0,1.38,0.0,2.84,0
3603.0,1.41,0.0,2.76,0
3604.0,1.51,0.0,2.73,0
3606.0,1.66,0.0,2.69,0
3608.0,1.72,0.0,2.78,0
3610.0,1.72,0.0,2.77,0
3612.0,1.7,0.0,2.82,0
3614.0,1.62,0.0,2.84,0
3616.0,1.57,0.0,2.92,0
3618.0,1.52,0.0,2.84,0
3620.0,1.52,0.0,2.81,0
3622.0,1.52,0.0,2.66,0
3624.0,1.58,0.0,2.49,0
3627.0,1.62,0.0,2.35,0
3629.0,1.66,0.0,2.14,0
3631.0,1.7,0.0,1.99,0
3633.0,1.68,0.0,1.99,0
3635.0,1.62,0.0,1.95,0
3637.0,1.53,0.0,1.89,0
3639.0,1.5,0.0,1.74,0
3641.0,1.56,0.0,1.55,0
3643.0,1.59,0.0,1.45,0
3645.0,1.62,0.0,1.43,0
3647.0,1.67,0.0,1.27,0
3648.0,1.67,0.0,1.28,0
3650.0,1.62,0.0,1.22,0
3652.0,1.61,0.0,1.14,0
3654.0,1.55,0.0,1.03,0
3656.0,1.5,0.0,0.78,0
3658.0,1.45,0.0,0.61,0
3660.0,1.43,0.0,0.52,0
3662.0,1.4,0.0,0.43,0
3664.0,1.42,0.0,0.44,0
3666.0,1.47,0.0,0.35,0
3668.0,1.51,0.0,0.3,0
3671.0,1.48,0.0,0.16,0
3673.0,1.42,0.0,0.15,0
3675.0,1.31,0.0,0.04,0
3677.0,1.25,0.0,0.09,0
3679.0,1.12,0.0,0.02,0
3681.0,1.1,0.0,0.0,0
3683.0,1.14,0.0,0.0,0
3685.0,1.17,0.0,0.0,0
3687.0,1.24,0.0,0.0,0
3689.0,1.28,0.0,0.0,0
3690.0,1.37,0.0,0.0,0
3692.0,1.36,0.0,0.0,0
3694.0,1.29,0.0,0.0,0
3696.0,1.26,0.0,0.0,0
3698.0,1.21,0.0,0.0,0
3700.0,1.19,0.0,0.0,0
3702.0,1.23,0.0,0.0,0
3704.0,1.29,0.0,0.0,0
3706.0,1.37,0.0,0.0,0
3708.0,1.39,0.0,0.0,0
3710.0,1.41,0.0,0.0,0
3713.0,1.39,0.0,0.0,0
3715.0,1.34,0.03,0.07,0
3717.0,1.29,0.05,0.29,0
3719.0,1.29,0.09,0.4,0
3721.0,1.3,0.12,0.33,0
3723.0,1.33,0.15,0.31,0
3725.0,1.37,0.17,0.33,0
3727.0,1.38,0.2,0.28,0
3729.0,1.42,0.22,0.32,0
3731.0,1.42,0.24,0.4,0
3732.0,1.37,0.27,0.43,0
3734.0,1.32,0.3,0.4,0
3736.0,1.28,0.33,0.29,0
3738.0,1.21,0.35,0.25,0
3740.0,1.22,0.38,0.22,0
3742.0,1.28,0.4,0.31,0
3744.0,1.34,0.41,0.43,0
3746.0,1.38,0.43,0.68,0
3748.0,1.4,0.45,0.95,0
3750.0,1.33,0.46,1.2,0
3752.0,1.27,0.48,1.48,0
3755.0,1.22,0.5,1.91,0
3757.0,1.18,0.53,2.31,0
3759.0,1.11,0.55,2.61,0
3761.0,1.05,0.57,3.01,0
3763.0,0.98,0.59,3.24,0
3765.0,1.05,0.6,3.25,0
3767.0,1.13,0.61,3.25,0
3769.0,1.17,0.62,3.25,0
3771.0,1.21,0.64,3.25,0
3773.0,1.22,0.65,3.25,0
3775.0,1.16,0.67,3.25,0
3776.0,1.09,0.69,3.25,0
3778.0,1.02,0.71,3.25,0
3780.0,1.09,0.73,3.25,0
3782.0,1.24,0.74,3.25,0
3784.0,1.2,0.75,3.25,0
3786.0,1.18,0.76,3.25,0
3788.0,1.24,0.77,3.25,0
3790.0,1.27,0.78,3.25,0
3792.0,1.26,0.8,3.25,0
3794.0,1.19,0.81,3.25,0
3796.0,1.21,0.83,3.25,0
3799.0,1.16,0.85,3.25,0
3801.0,1.16,0.86,3.25,0
3803.0,1.22,0.87,3.25,0
3805.0,1.3,0.88,3.25,0
3807.0,1.35,0.89,3.25,0
3809.0,1.42,0.89,3.25,0
3811.0,1.45,0.9,3.23,0
3813.0,1.45,0.91,3.07,0
3815.0,1.39,0.93,2.78,0
3817.0,1.31,0.95,2.47,0
3818.0,1.29,0.96,2.3,0
3820.0,1.33,0.97,2.05,0
3822.0,1.35,0.98,1.77,0
3824.0,1.43,0.98,1.58,0
3826.0,1.47,0.99,1.4,0
3828.0,1.5,0.99,1.12,0
3830.0,1.48,1.0,0.89,0
3832.0,1.39,1.01,0.69,0
3834.0,1.28,1.02,0.54,0
3836.0,1.26,1.04,0.36,0
3838.0,1.23,1.05,0.19,0
3841.0,1.22,1.06,0.05,0
3843.0,1.25,1.06,0.01,0
3845.0,1.34,1.07,0.01,0
3847.0,1.42,1.07,0.01,0
3849.0,1.46,1.07,0.01,0
3851.0,1.48,1.08,0.01,0
3853.0,1.47,1.09,0.01,0
3855.0,1.36,1.1,0.01,0
3857.0,1.33,1.11,0.01,0
3859.0,1.33,1.12,0.01,0
3860.0,1.37,1.13,0.01,0
3862.0,1.42,1.14,0.01,0
3864.0,1.47,1.14,0.01,0
3866.0,1.57,1.14,0.01,0
3868.0,1.68,1.14,0.01,0
3870.0,1.69,1.14,0.01,0
3872.0,1.65,1.15,0.01,0
3874.0,1.58,1.16,0.01,0
3876.0,1.53,1.17,0.01,0
3878.0,1.46,1.18,0.01,0
3880.0,1.52,1.19,0.01,0
3883.0,1.54,1.19,0.01,0
3885.0,1.58,1.19,0.01,0
3887.0,1.66,1.19,0.01,0
3889.0,1.71,0.83,0.0,0
3891.0,1.72,0.1,0.0,0
3893.0,1.66,0.87,0.0,0
3895.0,1.62,1.32,0.01,0
3897.0,1.56,1.37,0.01,0
3899.0,1.51,1.38,0.01,0
3901.0,1.54,1.38,0.01,0
3903.0,1.56,1.37,0.02,0
3904.0,1.58,1.36,0.01,0
3906.0,1.61,0.0,0.0,0
3908.0,1.65,0.0,0.0,0
3910.0,1.6,0.0,0.0,0
3912.0,1.52,0.96,0.01,0
3914.0,1.43,2.67,0.04,0
3916.0,1.33,2.81,0.04,0
3918.0,1.28,2.72,0.05,0
3920.0,1.36,2.61,0.03,0
3922.0,1.39,2.5,0.03,0
3924.0,1.44,2.4,0.03,0
3927.0,1.5,0.0,0.0,0
3929.0,1.52,0.0,0.0,0
3931.0,1.48,0.0,0.0,0
3933.0,1.44,1.4,0.02,0
3935.0,1.4,3.3,0.05,0
3937.0,1.36,3.3,0.05,0
3939.0,1.29,3.3,0.05,0
3941.0,1.3,3.3,0.05,0
3943.0,1.4,3.3,0.05,0
3945.0,1.47,3.21,0.05,0
3946.0,1.54,0.0,0.0,0
3948.0,1.63,0.0,0.0,0
3950.0,1.61,0.0,0.0,0
3952.0,1.53,1.58,0.03,0
3954.0,1.45,3.3,0.05,0
3956.0,1.4,3.3,0.05,0
3958.0,1.38,3.3,0.05,0
3960.0,1.4,3.3,0.05,0
3962.0,1.46,3.3,0.05,0
3964.0,1.51,3.3,0.05,0
3966.0,1.6,0.0,0.0,0
3969.0,1.69,0.0,0.0,0
3971.0,1.66,0.0,0.0,0
3973.0,1.55,1.66,0.03,0
3975.0,1.43,3.3,0.05,0
3977.0,1.37,3.3,0.05,0
3979.0,1.36,3.3,0.05,0
3981.0,1.35,3.3,0.05,0
3983.0,1.33,3.3,0.05,0
3985.0,1.4,3.3,0.05,0
3987.0,1.45,0.0,0.0,0
3988.0,1.5,0.0,0.0,0
3990.0,1.52,0.0,0.0,0
3992.0,1.47,1.7,0.03,0
3994.0,1.36,3.3,0.05,0
3996.0,1.31,3.3,0.06,0
3998.0,1.28,3.3,0.05,0
4000.0,1.34,3.3,0.05,0
4002.0,1.34,3.3,0.05,0
4004.0,1.4,3.3,0.05,0
4006.0,1.49,0.0,0.0,0
4008.0,1.53,0.0,0.0,0
4011.0,1.51,0.0,0.0,0
4013.0,1.48,2.33,0.05,0
4015.0,1.45,3.3,0.13,0
4017.0,1.41,3.3,0.21,0
4019.0,1.39,3.3,0.25,0
4021.0,1.45,3.3,0.3,0
4023.0,1.49,3.3,0.3,0
4025.0,1.52,3.3,0.18,0
4027.0,1.52,0.0,0.13,0
4029.0,1.53,0.0,0.19,0
4031.0,1.52,0.0,0.25,0
4032.0,1.48,2.53,0.43,0
4034.0,1.43,3.3,0.6,0
4036.0,1.37,3.3,0.73,0
4038.0,1.32,3.3,0.84,0
4040.0,1.4,3.3,0.85,0
4042.0,1.43,3.3,0.93,0
4044.0,1.44,3.3,1.08,0
4046.0,1.49,0.0,1.05,0
4048.0,1.57,0.0,1.1,0
4050.0,1.58,0.0,1.25,0
4052.0,1.56,2.46,1.47,0
4055.0,1.49,3.3,1.58,0
4057.0,1.46,3.3,1.58,0
4059.0,1.38,3.3,1.63,0
4061.0,1.36,3.3,1.73,0
4063.0,1.38,3.3,1.81,0
4065.0,1.42,3.3,1.73,0
4067.0,1.49,0.0,1.67,0
4069.0,1.53,0.0,1.77,0
4071.0,1.52,0.0,1.79,0
4073.0,1.5,0.0,1.85,0
4074.0,1.46,0.95,1.88,0
4076.0,1.4,3.3,1.98,0
4078.0,1.36,3.3,1.95,0
4080.0,1.38,3.3,2.0,0
4082.0,1.46,3.3,1.93,0
4084.0,1.54,0.0,1.8,0
4086.0,1.6,0.0,1.82,0
4088.0,1.66,0.0,1.85,0
4090.0,1.64,0.0,1.76,0
4092.0,1.56,0.0,1.72,0
4094.0,1.46,0.0,1.7,0
4097.0,1.45,3.3,1.84,0
4099.0,1.37,3.3,1.81,0
4101.0,1.36,3.3,1.74,0
4103.0,1.38,0.0,1.62,0
4105.0,1.4,0.0,1.59,0
4107.0,1.47,0.0,1.63,0
4109.0,1.56,0.0,1.64,0
4111.0,1.55,0.0,1.65,0
4113.0,1.46,0.0,1.63,0
4115.0,1.33,0.0,1.58,0
4116.0,1.26,3.3,1.64,0
4118.0,1.2,3.3,1.62,0
4120.0,1.21,3.3,1.61,0
4122.0,1.27,0.03,1.45,0
4124.0,1.32,0.0,1.5,0
4126.0,1.38,0.0,1.51,0
4128.0,1.44,0.0,1.52,0
4130.0,1.41,0.0,1.48,0
4132.0,1.37,0.0,1.44,0
4134.0,1.28,0.0,1.28,0
4136.0,1.26,3.3,1.21,0
4139.0,1.26,3.3,1.17,0
4141.0,1.28,3.3,1.16,0
4143.0,1.27,2.36,1.09,0
4145.0,1.28,0.0,0.98,0
4147.0,1.46,0.0,0.82,0
4149.0,1.53,0.0,0.83,0
4151.0,1.53,0.0,0.87,0
4153.0,1.53,0.0,0.86,0
4155.0,1.5,0.0,0.74,0
4157.0,1.43,3.3,0.69,0
4159.0,1.32,3.3,0.64,0
4160.0,1.33,3.3,0.39,0
4162.0,1.41,2.17,0.13,0
4164.0,1.45,0.0,0.09,0
4166.0,1.53,0.0,0.37,0
4168.0,1.63,0.0,0.24,0
4170.0,1.62,0.0,0.2,0
4172.0,1.54,0.0,0.39,0
4174.0,1.44,0.0,0.48,0
4176.0,1.38,3.3,0.58,0
4178.0,1.36,3.3,0.56,0
4180.0,1.39,3.3,0.61,0
4183.0,1.39,2.53,0.52,0
4185.0,1.38,0.0,0.45,0
4187.0,1.45,0.0,0.45,0
4189.0,1.46,0.0,0.51,0
4191.0,1.46,0.0,0.45,0
4193.0,1.39,0.0,0.62,0
4195.0,1.3,0.0,0.74,0
4197.0,1.26,3.3,0.95,0
4199.0,1.27,3.3,1.12,0
4201.0,1.32,3.3,1.19,0
4202.0,1.4,2.39,1.26,0
4204.0,1.45,0.0,1.23,0
4206.0,1.53,0.0,1.33,0
4208.0,1.65,0.0,1.48,0
4210.0,1.7,0.0,1.47,0
4212.0,1.72,0.0,1.52,0
4214.0,1.63,0.0,1.61,0
4216.0,1.49,3.3,1.74,0
4218.0,1.35,3.3,1.79,0
4220.0,1.4,0.13,1.57,0
4222.0,1.56,0.0,1.51,0
4225.0,1.52,0.0,1.36,0
4227.0,1.44,3.3,1.51,0
4229.0,1.34,3.3,1.53,0
4231.0,1.62,0.0,1.38,0
4233.0,1.71,0.0,1.49,0
4235.0,1.59,3.3,1.69,0
4237.0,1.42,3.3,1.74,0
4239.0,1.19,3.3,1.82,0
4241.0,1.52,0.0,1.63,0
4243.0,1.66,0.0,1.77,0
4244.0,1.48,0.65,1.77,0
4246.0,1.34,3.3,2.05,0
4248.0,1.26,3.3,1.81,0
4250.0,1.49,0.0,1.69,0
4252.0,1.53,0.0,1.82,0
4254.0,1.35,3.3,1.98,0
4256.0,1.24,3.3,2.04,0
4258.0,1.02,3.3,2.07,0
4260.0,1.5,0.0,1.95,0
4262.0,1.7,0.0,2.2,0
4264.0,1.57,3.3,2.34,0
4267.0,1.48,3.3,2.41,0
4269.0,1.26,3.3,2.04,0
4271.0,1.63,0.0,2.16,0
4273.0,1.73,0.0,2.38,0
4275.0,1.5,3.3,2.37,0
4277.0,1.34,3.3,2.38,0
4279.0,1.06,3.3,2.3,0
4281.0,1.74,0.0,2.15,0
4283.0,1.71,0.84,2.51,0
4285.0,1.43,3.3,2.54,0
4287.0,1.16,3.3,2.69,0
4288.0,1.13,3.07,2.37,0
4290.0,1.63,0.0,2.48,0
4292.0,1.42,3.3,2.78,0
4294.0,1.21,3.3,2.49,0
4296.0,1.08,3.3,2.31,0
4298.0,0.85,3.3,2.35,0
4300.0,1.53,0.0,2.2,0
4302.0,1.05,3.3,2.46,0
4304.0,1.13,3.3,2.47,0
4306.0,1.0,3.3,2.44,0
4308.0,1.06,3.3,2.29,0
4311.0,1.36,0.0,2.3,0
4313.0,1.06,3.3,2.62,0
4315.0,0.91,3.3,2.13,0
4317.0,0.98,3.3,1.98,0
4319.0,1.09,3.3,2.3,0
4321.0,1.25,0.0,2.05,0
4323.0,1.36,3.3,2.37,0
4325.0,1.12,3.3,1.98,0
4327.0,0.86,3.3,1.7,0
4329.0,1.28,3.3,1.83,0
4330.0,1.75,0.0,1.94,0
4332.0,1.24,3.3,2.19,0
4334.0,0.85,3.3,1.02,0
4336.0,1.3,3.3,1.65,0
4338.0,1.36,3.3,1.97,0
4340.0,0.73,0.0,1.65,0
4342.0,1.32,3.3,1.93,0
4344.0,1.14,3.3,1.64,0
4346.0,0.78,3.3,1.28,0
4348.0,1.43,3.3,1.48,0
4350.0,1.88,0.0,1.72,0
4353.0,1.14,3.3,1.87,0
4355.0,1.01,3.3,1.03,0
4357.0,1.49,3.3,1.57,0
4359.0,1.43,3.3,1.84,0
4361.0,1.44,0.0,1.71,0
4363.0,1.37,3.3,1.85,0
4365.0,1.14,3.3,1.15,0
4367.0,1.07,3.3,1.12,0
4369.0,1.51,3.3,1.26,0
4371.0,1.73,0.0,1.34,0
4373.0,0.47,3.3,1.57,0
4374.0,1.21,3.3,1.18,0
4376.0,1.66,3.3,1.2,0
4378.0,1.87,3.3,1.63,0
4380.0,2.47,0.0,1.67,0
4382.0,1.54,3.3,1.65,0
4384.0,1.61,3.3,1.42,0
4386.0,1.14,3.3,1.15,0
4388.0,1.82,3.3,1.32,0
4390.0,2.17,1.24,1.09,0
4392.0,1.25,3.3,1.8,0
4395.0,1.03,3.3,1.01,0
4397.0,1.16,3.3,0.69,0
4399.0,1.52,3.3,1.23,0
4401.0,1.0,0.0,1.49,0
4403.0,1.02,3.3,1.76,0
4405.0,0.96,3.3,0.69,0
4407.0,0.76,3.3,0.45,0
4409.0,1.58,3.3,1.15,0
4411.0,1.38,0.0,1.61,0
4413.0,0.33,3.3,2.32,0
4415.0,0.97,3.3,0.92,0
4416.0,1.45,3.3,1.07,0
4418.0,1.74,3.3,1.41,0
4420.0,1.33,0.0,1.82,0
4422.0,0.71,3.3,1.99,0
4424.0,0.75,3.3,0.91,0
4426.0,0.65,3.3,0.19,0
4428.0,1.68,3.3,0.79,0
4430.0,1.8,3.22,0.73,0
4432.0,0.78,3.3,2.24,0
4434.0,0.95,3.3,0.74,0
4436.0,1.45,3.3,0.53,0
4439.0,1.81,3.3,0.83,0
4441.0,2.1,0.0,1.26,0
4443.0,0.56,3.3,1.29,0
4445.0,1.15,3.3,0.48,0
4447.0,0.58,3.3,0.07,0
4449.0,1.66,3.3,0.14,0
4451.0,1.51,1.05,1.02,0
4453.0,0.66,3.14,1.35,0
4455.0,1.19,3.3,0.27,0
4457.0,1.43,3.3,0.06,0
4458.0,1.68,3.3,0.21,0
4460.0,1.28,0.0,0.81,0
4462.0,0.86,2.19,0.61,0
4464.0,1.36,3.17,0.07,0
4466.0,1.28,3.07,0.06,0
4468.0,1.66,2.83,0.06,0
4470.0,2.0,1.99,0.07,0
4472.0,0.69,1.68,0.42,0
4474.0,0.88,2.12,0.04,0
4476.0,1.29,2.01,0.03,0
4478.0,1.66,1.85,0.03,0
4481.0,2.24,0.0,0.44,0
4483.0,0.63,1.15,0.01,0
4485.0,1.34,1.67,0.02,0
4487.0,1.25,1.61,0.02,0
4489.0,1.86,1.47,0.02,0
4491.0,2.47,1.3,0.02,0
4493.0,0.86,0.95,0.01,0
4495.0,1.11,1.05,0.01,0
4497.0,1.54,0.97,0.0,0
4499.0,1.64,0.89,0.01,0
4501.0,1.44,0.0,0.0,0
4502.0,1.14,0.52,0.0,0
4504.0,1.22,0.65,0.0,0
4506.0,0.96,0.63,0.0,0
4508.0,1.68,0.57,0.0,0
4510.0,2.39,0.47,0.0,0
4512.0,0.94,0.18,0.0,0
4514.0,1.35,0.4,0.0,0
4516.0,1.54,0.4,0.0,0
4518.0,1.63,0.38,0.0,0
4520.0,0.48,0.0,0.0,0
4523.0,1.04,0.35,0.0,0
4525.0,1.64,0.8,0.0,0
4527.0,1.13,0.81,0.0,0
4529.0,1.81,0.76,0.0,0
4531.0,1.31,0.0,0.24,0
4533.0,0.2,0.36,0.0,0
4535.0,1.03,0.9,0.01,0
4537.0,1.57,0.92,0.01,0
4539.0,1.94,0.87,0.0,0
4541.0,1.94,0.0,0.36,0
4543.0,1.02,0.92,0.01,0
4544.0,1.69,1.58,0.02,0
4546.0,1.2,1.57,0.02,0
4548.0,2.14,1.11,0.0,0
4550.0,1.85,0.0,0.0,0
4552.0,0.93,0.8,0.01,0
4554.0,1.56,2.12,0.04,0
4556.0,2.05,2.16,0.03,0
4558.0,2.08,2.04,0.03,0
4560.0,1.69,0.0,1.11,0
4562.0,1.36,0.96,0.13,0
4564.0,1.6,2.79,0.05,0
4567.0,1.51,2.86,0.05,0
4569.0,1.94,0.94,0.0,0
4571.0,1.52,0.0,0.15,0
4573.0,0.0,1.3,2.0,0
4575.0,1.23,3.3,0.11,0
4577.0,1.95,3.3,0.06,0
4579.0,1.9,3.27,0.05,0
4581.0,1.65,0.0,1.72,0
4583.0,1.0,1.35,1.21,0
4585.0,1.22,3.3,0.05,0
4586.0,1.2,3.3,0.06,0
4588.0,1.9,0.0,0.0,0
4590.0,1.93,0.0,2.01,0
4592.0,1.13,1.42,2.06,0
4594.0,1.59,3.3,0.7,0
4596.0,2.07,3.3,0.61,0
4598.0,1.97,3.3,0.8,0
4600.0,1.2,0.0,1.98,0
4602.0,1.43,2.11,2.27,0
4604.0,1.56,3.3,1.12,0
4606.0,1.1,3.3,0.36,0
4609.0,1.94,0.0,0.71,0
4611.0,1.76,0.0,2.27,0
4613.0,0.48,2.7,2.83,0
4615.0,1.42,3.3,1.58,0
4617.0,1.24,3.3,0.66,0
4619.0,1.82,3.3,1.55,0
4621.0,1.71,0.0,3.24,0
4623.0,0.76,2.05,2.79,0
4625.0,1.85,3.3,1.62,0
4627.0,1.55,3.3,1.37,0
4629.0,2.05,0.0,1.43,0
4630.0,1.96,0.0,1.97,0
4632.0,1.02,2.9,2.91,0
4634.0,1.69,3.3,1.78,0
4636.0,2.03,3.3,2.02,0
4638.0,1.84,3.3,2.18,0
4640.0,1.62,0.0,3.24,0
4642.0,1.53,1.54,2.96,0
4644.0,1.48,3.3,2.07,0
4646.0,0.81,3.3,1.42,0
4648.0,1.74,0.0,1.78,0
4651.0,2.26,0.0,3.24,0
4653.0,1.64,0.86,2.85,0
4655.0,1.43,3.3,1.64,0
4657.0,1.45,3.3,2.06,0
4659.0,1.77,3.3,2.46,0
4661.0,1.81,0.0,3.23,0
4663.0,1.43,0.17,2.93,0
4665.0,1.38,3.3,2.03,0
4667.0,0.97,3.3,1.96,0
4669.0,1.83,0.0,2.34,0
4671.0,1.65,0.0,3.24,0
4672.0,1.25,0.0,3.14,0
4674.0,0.55,0.0,1.76,0
4676.0,1.36,3.3,2.17,0
4678.0,1.68,3.3,2.64,0
4680.0,1.82,0.0,3.23,0
4682.0,1.23,0.0,2.93,0
4684.0,1.29,0.0,2.12,0
4686.0,1.16,3.3,2.5,0
4688.0,1.82,0.0,2.38,0
4690.0,1.53,0.0,3.24,0
4692.0,1.6,0.0,2.95,0
4695.0,1.18,0.0,2.16,0
4697.0,1.59,0.0,2.29,0
4699.0,1.5,3.3,2.6,0
4701.0,1.87,0.0,3.24,0
4703.0,1.3,0.0,2.73,0
4705.0,1.44,0.0,2.15,0
4707.0,1.12,3.3,2.07,0
4709.0,1.64,0.0,2.17,0
4711.0,2.35,0.0,2.62,0
4713.0,1.42,0.0,2.83,0
4714.0,1.05,0.0,1.84,0
4716.0,1.72,0.0,2.19,0
4718.0,1.71,3.3,2.53,0
4720.0,2.09,0.0,3.24,0
4722.0,1.51,0.0,2.95,0
4724.0,1.0,0.0,1.91,0
4726.0,1.21,3.3,1.95,0
4728.0,1.67,0.0,1.98,0
4730.0,1.85,0.0,3.07,0
4732.0,1.04,0.0,2.74,0
4734.0,1.37,1.18,1.48,0
4737.0,1.7,2.45,1.95,0
4739.0,1.64,3.3,2.26,0
4741.0,1.69,0.0,2.59,0
4743.0,1.57,0.0,2.45,0
4745.0,1.36,1.73,1.93,0
4747.0,1.19,3.3,1.85,0
4749.0,1.75,0.0,1.81,0
4751.0,1.78,0.0,3.23,0
4753.0,1.45,0.0,2.76,0
4755.0,1.35,3.3,1.68,0
4757.0,1.64,3.3,1.7,0
4758.0,1.52,3.3,1.82,0
4760.0,1.86,0.0,2.38,0
4762.0,1.64,0.0,2.03,0
4764.0,1.38,3.3,1.32,0
4766.0,0.89,3.3,0.96,0
4768.0,1.7,0.0,1.22,0
4770.0,2.1,0.0,2.42,0
4772.0,0.93,0.4,2.39,0
4774.0,0.68,3.3,0.65,0
4776.0,0.98,3.3,0.82,0
4779.0,1.56,3.3,1.59,0
4781.0,1.97,0.0,2.99,0
4783.0,1.27,0.0,2.23,0
4785.0,1.07,2.86,1.06,0
4787.0,1.19,3.3,1.05,0
4789.0,1.8,0.0,1.24,0
4791.0,1.72,0.0,2.44,0
4793.0,1.3,0.0,2.41,0
4795.0,1.18,3.3,0.95,0
4797.0,1.34,3.3,0.96,0
4799.0,1.61,3.3,1.33,0
4800.0,2.08,0.0,2.44,0
4802.0,1.24,0.07,1.89,0
4804.0,1.03,3.3,0.65,0
4806.0,0.77,3.3,0.87,0
4808.0,1.68,0.0,1.22,0
4810.0,1.75,0.0,2.26,0
4812.0,0.88,0.0,2.24,0
4814.0,0.87,3.3,1.09,0
4816.0,1.58,3.3,1.23,0
4818.0,1.77,3.3,1.57,0
4820.0,1.03,0.0,2.43,0
4823.0,0.95,0.0,1.96,0
4825.0,1.53,3.3,1.27,0
4827.0,1.5,3.3,1.37,0
4829.0,2.12,0.0,1.46,0
4831.0,2.24,0.0,3.02,0
4833.0,1.59,1.03,2.52,0
4835.0,1.08,3.3,0.42,0
4837.0,1.43,3.3,1.19,0
4839.0,1.8,3.3,1.85,0
4841.0,1.95,0.0,2.8,0
4842.0,1.13,0.0,2.15,0
4844.0,0.85,3.3,1.12,0
4846.0,0.37,3.3,0.85,0
4848.0,1.85,0.0,1.6,0
4850.0,2.2,0.0,2.14,0
4852.0,1.11,0.49,2.66,0
4854.0,0.4,3.3,1.3,0
4856.0,1.59,3.3,1.69,0
4858.0,1.69,3.3,2.19,0
4860.0,1.75,0.0,3.18,0
4862.0,1.14,1.44,2.31,0
4865.0,1.05,3.3,1.37,0
4867.0,1.13,3.3,1.72,0
4869.0,1.93,0.0,1.89,0
4871.0,2.12,0.0,3.07,0
4873.0,1.22,2.35,2.7,0
4875.0,1.52,3.3,1.92,0
4877.0,1.54,3.3,1.83,0
4879.0,1.55,3.3,2.28,0
4881.0,1.45,0.0,3.24,0
4883.0,0.83,2.26,2.46,0
4885.0,1.0,3.3,1.38,0
4886.0,0.64,3.3,1.05,0
4888.0,1.84,0.0,1.75,0
4890.0,2.32,0.0,2.59,0
4892.0,1.1,1.02,2.93,0
4894.0,1.21,3.3,2.08,0
4896.0,1.74,3.3,2.05,0
4898.0,1.67,3.3,2.19,0
4900.0,1.22,0.0,3.23,0
4902.0,0.72,0.0,2.55,0
4904.0,1.11,3.3,1.67,0
4907.0,0.89,3.3,1.25,0
4909.0,1.88,0.0,1.57,0
4911.0,1.08,0.0,2.99,0
4913.0,0.88,0.13,2.55,0
4915.0,1.17,3.3,1.66,0
4917.0,1.78,3.3,1.45,0
4919.0,1.84,3.3,1.79,0
4921.0,1.35,0.0,3.23,0
4923.0,1.28,1.5,2.57,0
4925.0,1.11,3.3,1.5,0
4927.0,0.9,3.3,0.47,0
4928.0,2.2,0.0,1.2,0
4930.0,3.03,0.0,2.87,0
4932.0,0.81,0.0,2.62,0
4934.0,1.39,3.3,1.42,0
4936.0,2.23,3.3,1.35,0
4938.0,2.39,3.3,1.72,0
4940.0,2.32,0.0,3.23,0
4942.0,0.92,0.0,2.8,0
4944.0,1.64,3.3,1.31,0
4946.0,1.19,3.3,0.2,0
4948.0,2.45,0.0,1.03,0
4951.0,2.49,0.0,3.23,0
4953.0,1.34,0.0,2.75,0
4955.0,1.86,3.3,1.68,0
4957.0,2.33,3.3,1.3,0
4959.0,2.33,3.3,1.56,0
4961.0,1.94,0.0,3.06,0
4963.0,1.55,0.0,2.58,0
4965.0,1.51,3.3,1.39,0
4967.0,1.12,3.3,0.63,0
4969.0,2.32,0.0,1.07,0
4970.0,1.57,0.0,3.23,0
4972.0,0.47,0.0,2.85,0
4974.0,1.16,3.3,1.27,0
4976.0,1.99,3.3,0.79,0
4978.0,2.19,3.3,1.14,0
4980.0,1.48,0.0,3.24,0
4982.0,0.46,0.0,2.57,0
4984.0,1.49,3.3,1.05,0
4986.0,1.3,3.3,0.18,0
4988.0,2.39,0.0,0.53,0
4990.0,2.07,0.0,3.23,0
4993.0,0.89,0.0,2.6,0
4995.0,1.35,2.66,0.73,0
4997.0,2.06,3.3,0.18,0
4999.0,2.18,3.3,0.39,0
5001.0,1.31,0.0,3.03,0
5003.0,1.52,0.0,2.35,0
5005.0,1.51,1.67,1.2,0
5007.0,1.24,3.3,0.06,0
5009.0,2.3,0.0,0.22,0
5011.0,1.91,0.0,3.24,0
5013.0,0.37,0.0,2.58,0
5014.0,0.98,2.7,0.97,0
5016.0,2.15,3.3,0.21,0
5018.0,2.17,3.3,0.35,0
5020.0,1.18,0.0,3.24,0
5022.0,0.61,0.0,2.52,0
5024.0,1.29,2.04,0.66,0
5026.0,1.25,3.3,0.06,0
5028.0,2.5,0.0,0.0,0
5030.0,0.64,0.0,3.23,0
5032.0,0.78,0.0,2.07,0
5035.0,1.35,1.68,0.05,0
5037.0,2.07,3.3,0.06,0
5039.0,2.41,3.28,0.02,0
5041.0,0.0,0.0,3.23,0
5043.0,1.0,0.0,1.22,0
5045.0,1.7,1.38,0.05,0
5047.0,1.56,3.3,0.06,0
5049.0,2.82,0.0,0.0,0
5051.0,1.71,0.0,3.23,0
5053.0,0.0,0.0,1.97,0
5055.0,1.22,2.33,0.06,0
5056.0,2.64,3.3,0.06,0
5058.0,2.65,3.08,0.01,0
5060.0,0.88,0.0,3.23,0
5062.0,0.54,0.0,1.95,0
5064.0,2.3,1.28,0.04,0
5066.0,2.68,3.3,0.06,0
5068.0,3.16,0.0,0.0,0
5070.0,1.24,0.0,3.24,0
5072.0,0.81,0.0,1.96,0
5074.0,2.06,1.83,0.05,0
5076.0,2.83,3.3,0.06,0
5079.0,2.85,2.39,0.0,0
5081.0,0.0,0.0,3.23,0
5083.0,0.21,0.0,1.69,0
5085.0,1.28,1.16,0.04,0
5087.0,2.44,3.3,0.06,0
5089.0,3.3,0.0,0.56,0
5091.0,1.92,0.0,3.23,0
5093.0,0.74,0.0,1.94,0
5095.0,2.4,1.36,0.03,0
5097.0,3.3,3.3,0.06,0
5098.0,3.17,2.37,0.0,0
5100.0,0.04,0.0,3.24,0
5102.0,0.46,0.0,1.43,0
5104.0,2.0,2.09,0.06,0
5106.0,2.33,3.3,0.06,0
5108.0,3.27,0.0,1.34,0
5110.0,0.0,0.0,3.24,0
5112.0,0.79,0.0,1.66,0
5114.0,2.01,2.74,0.06,0
5116.0,3.05,3.3,0.06,0
5118.0,3.01,2.48,0.0,0
5121.0,0.0,0.0,3.24,0
5123.0,0.22,0.0,0.68,0
5125.0,1.96,2.57,0.06,0
5127.0,2.36,3.3,0.06,0
5129.0,3.27,0.0,2.06,0
5131.0,1.83,0.0,3.24,0
5133.0,0.37,0.0,2.19,0
5135.0,0.45,3.3,0.06,0
5137.0,2.75,3.3,0.06,0
5139.0,3.1,2.58,0.0,0
5141.0,0.0,0.0,3.24,0
5142.0,0.0,0.0,2.24,0
5144.0,1.75,2.55,0.05,0
5146.0,2.58,3.3,0.06,0
5148.0,3.3,0.0,2.0,0
5150.0,1.95,0.0,3.25,0
5152.0,0.68,0.0,1.91,0
5154.0,1.4,3.3,0.06,0
5156.0,2.83,3.3,0.06,0
5158.0,3.1,2.18,0.0,0
5160.0,0.0,0.0,3.24,0
5163.0,0.34,0.0,0.0,0
5165.0,1.63,3.3,0.06,0
5167.0,2.49,3.3,0.05,0
5169.0,3.3,0.0,1.83,0
5171.0,2.05,0.0,3.24,0
5173.0,0.4,0.0,0.48,0
5175.0,2.2,3.3,0.06,0
5177.0,3.14,3.3,0.06,0
5179.0,3.16,2.12,0.0,0
5181.0,0.0,0.0,3.23,0
5183.0,0.09,0.0,0.82,0
5184.0,2.13,2.99,0.06,0
5186.0,1.8,3.3,0.06,0
5188.0,3.3,0.0,1.6,0
5190.0,0.0,0.0,3.24,0
5192.0,0.24,0.0,0.0,0
5194.0,1.02,3.3,0.05,0
5196.0,3.1,3.3,0.06,0
5198.0,3.15,2.19,0.0,0
5200.0,0.0,0.0,3.23,0
5202.0,0.0,0.0,0.26,0
5204.0,2.36,3.3,0.06,0
5207.0,2.86,3.3,0.06,0
5209.0,3.3,0.0,1.29,0
5211.0,1.52,0.0,3.24,0
5213.0,0.39,0.0,0.0,0
5215.0,2.38,3.3,0.06,0
5217.0,3.21,3.3,0.06,0
5219.0,2.99,2.11,0.0,0
5221.0,0.0,0.0,3.23,0
5223.0,0.0,0.0,0.49,0
5225.0,1.68,3.3,0.05,0
5226.0,2.5,3.3,0.06,0
5228.0,3.28,0.0,0.9,0
5230.0,0.0,0.0,3.24,0
5232.0,0.0,0.0,0.43,0
5234.0,1.74,3.3,0.06,0
5236.0,2.96,3.3,0.06,0
5238.0,2.88,2.08,0.0,0
5240.0,0.0,0.0,3.23,0
5242.0,0.1,0.0,0.0,0
5244.0,1.68,3.3,0.06,0
5246.0,1.52,3.3,0.05,0
5249.0,3.03,0.0,0.81,0
5251.0,0.0,0.0,3.23,0
5253.0,0.0,0.0,0.49,0
5255.0,0.57,3.3,0.06,0
5257.0,2.35,3.3,0.06,0
5259.0,2.59,1.83,0.0,0
5261.0,0.0,0.0,3.23,0
5263.0,0.25,0.0,0.05,0
5265.0,1.1,3.3,0.05,0
5267.0,1.49,3.3,0.06,0
5269.0,2.95,0.0,0.8,0
5270.0,0.0,0.0,3.24,0
5272.0,0.3,0.0,0.96,0
5274.0,1.31,3.3,0.05,0
5276.0,2.67,3.3,0.06,0
5278.0,2.86,1.58,0.0,0
5280.0,0.0,0.0,3.24,0
5282.0,0.21,0.0,0.25,0
5284.0,1.95,3.3,0.06,0
5286.0,2.1,3.3,0.06,0
5288.0,3.3,0.0,0.86,0
5291.0,1.17,0.0,3.23,0
5293.0,0.03,0.0,1.1,0
5295.0,1.52,3.3,0.06,0
5297.0,2.96,3.3,0.06,0
5299.0,3.05,0.89,0.0,0
5301.0,0.0,0.0,3.24,0
5303.0,0.55,0.0,1.36,0
5305.0,2.11,3.3,0.06,0
5307.0,2.43,3.3,0.06,0
5309.0,3.3,0.0,0.87,0
5311.0,0.0,0.0,3.24,0
5312.0,0.54,0.0,1.24,0
5314.0,1.75,3.19,0.06,0
5316.0,2.99,3.3,0.06,0
5318.0,3.07,0.66,0.0,0
5320.0,0.0,0.0,3.23,0
5322.0,0.48,0.0,0.4,0
5324.0,2.44,3.12,0.05,0
5326.0,2.64,3.3,0.05,0
5328.0,3.3,0.0,0.91,0
5330.0,2.09,0.0,3.24,0
5332.0,0.91,0.0,0.57,0
5335.0,1.79,3.3,0.06,0
5337.0,2.98,3.3,0.06,0
5339.0,2.76,0.22,0.0,0
5341.0,0.0,0.0,3.24,0
5343.0,0.39,0.0,0.79,0
5345.0,1.58,2.78,0.06,0
5347.0,2.14,3.3,0.05,0
5349.0,3.02,0.0,1.03,0
5351.0,1.34,0.0,3.24,0
5353.0,0.87,0.0,0.49,0
5354.0,0.9,3.15,0.06,0
5356.0,2.43,3.3,0.06,0
5358.0,2.47,0.0,0.0,0
5360.0,0.0,0.0,3.24,0
5362.0,1.03,0.0,0.92,0
5364.0,2.23,3.16,0.05,0
5366.0,1.87,3.3,0.06,0
5368.0,2.88,0.0,0.54,0
5370.0,0.0,0.0,3.23,0
5372.0,0.23,0.0,0.55,0
5374.0,1.1,0.0,0.02,0
5377.0,2.65,3.3,0.05,0
5379.0,2.55,0.0,0.0,0
5381.0,1.15,0.0,3.24,0
5383.0,0.83,0.0,1.2,0
5385.0,1.85,2.31,0.04,0
5387.0,1.62,3.3,0.05,0
5389.0,2.73,0.0,0.42,0
5391.0,0.0,0.0,3.24,0
5393.0,0.84,0.0,1.19,0
5395.0,1.96,2.81,0.06,0
5397.0,2.49,3.3,0.05,0
5398.0,2.35,0.0,0.0,0
5400.0,0.02,0.0,3.24,0
5402.0,0.62,0.0,0.81,0
5404.0,0.95,2.92,0.05,0
5406.0,1.85,3.3,0.05,0
5408.0,2.7,0.0,0.16,0
5410.0,2.45,0.0,3.23,0
5412.0,0.25,0.0,1.2,0
5414.0,1.39,1.53,0.05,0
5416.0,2.35,3.3,0.06,0
5419.0,2.14,0.0,0.0,0
5421.0,0.0,0.0,3.23,0
5423.0,0.68,0.0,0.77,0
5425.0,1.42,2.29,0.04,0
5427.0,1.37,3.3,0.05,0
5429.0,2.33,0.0,0.0,0
5431.0,0.0,0.0,3.24,0
5433.0,0.08,0.0,0.88,0
5435.0,1.52,1.2,0.04,0
5437.0,2.12,3.3,0.05,0
5439.0,1.8,0.0,0.0,0
5440.0,0.37,0.0,3.24,0
5442.0,0.64,0.0,1.34,0
5444.0,1.34,3.24,0.06,0
5446.0,1.15,3.3,0.05,0
5448.0,2.16,0.0,0.0,0
5450.0,0.0,0.0,3.24,0
5452.0,0.68,0.0,1.1,0
5454.0,1.54,3.3,0.05,0
5456.0,2.1,3.3,0.05,0
5458.0,1.96,0.0,0.0,0
5460.0,0.65,0.0,3.24,0
5463.0,0.81,0.0,1.04,0
5465.0,1.37,3.3,0.05,0
5467.0,1.55,3.3,0.05,0
5469.0,2.4,0.0,0.0,0
5471.0,0.0,0.0,3.24,0
5473.0,0.06,0.0,1.0,0
5475.0,1.42,3.26,0.06,0
5477.0,2.08,3.3,0.06,0
5479.0,2.09,0.0,0.0,0
5481.0,0.0,0.0,3.24,0
5482.0,0.65,0.0,0.82,0
5484.0,1.78,1.2,0.04,0
5486.0,1.57,3.3,0.05,0
5488.0,2.42,0.0,0.0,0
5490.0,0.0,0.0,3.24,0
5492.0,0.0,0.0,1.87,0
5494.0,1.27,3.3,0.06,0
5496.0,2.14,3.3,0.05,0
5498.0,2.18,0.0,0.0,0
5500.0,0.0,0.0,3.24,0
5502.0,0.89,0.0,0.57,0
5505.0,1.5,3.3,0.05,0
5507.0,1.6,3.3,0.05,0
5509.0,2.46,0.0,0.0,0
5511.0,1.01,0.0,3.24,0
5513.0,0.67,0.0,1.04,0
5515.0,1.55,3.28,0.05,0
5517.0,2.04,3.3,0.05,0
5519.0,2.05,0.0,0.0,0
5521.0,0.21,0.0,3.24,0
5523.0,0.9,0.0,0.6,0
5525.0,1.4,3.3,0.05,0
5526.0,1.33,3.3,0.05,0
5528.0,2.35,0.0,0.0,0
5530.0,0.0,0.0,3.24,0
5532.0,0.47,0.0,1.39,0
5534.0,0.63,2.66,0.05,0
5536.0,1.91,3.3,0.06,0
5538.0,1.99,0.0,0.0,0
5540.0,0.52,0.0,3.24,0
5542.0,0.74,0.0,1.5,0
5544.0,1.67,3.3,0.05,0
5547.0,1.31,3.3,0.05,0
5549.0,2.46,0.0,0.0,0
5551.0,1.04,0.0,3.24,0
5553.0,0.73,0.0,1.77,0
5555.0,1.83,3.3,0.15,0
5557.0,2.18,3.3,0.05,0
5559.0,2.18,0.0,0.0,0
5561.0,0.0,0.0,3.24,0
5563.0,0.73,0.0,1.88,0
5565.0,1.22,2.4,0.06,0
5567.0,1.59,3.3,0.06,0
5568.0,2.59,0.0,0.11,0
5570.0,1.78,0.0,3.24,0
5572.0,0.79,0.0,2.31,0
5574.0,1.39,3.3,0.2,0
5576.0,2.21,3.3,0.06,0
5578.0,2.13,0.0,0.06,0
5580.0,1.28,0.0,3.24,0
5582.0,1.24,0.0,1.76,0
5584.0,1.81,3.3,0.09,0
5586.0,1.4,3.3,0.05,0
5588.0,2.54,0.0,0.0,0
5591.0,0.0,0.0,3.23,0
5593.0,0.72,0.0,1.69,0
5595.0,1.8,3.3,0.06,0
5597.0,1.93,3.3,0.05,0
5599.0,2.12,0.0,0.0,0
5601.0,2.35,0.0,3.24,0
5603.0,1.25,0.0,1.82,0
5605.0,1.33,3.3,0.4,0
5607.0,1.5,3.3,0.06,0
5609.0,2.39,0.0,0.0,0
5610.0,0.0,0.0,3.24,0
5612.0,0.08,0.0,0.86,0
5614.0,0.99,3.3,0.06,0
5616.0,2.01,3.3,0.06,0
5618.0,2.14,0.0,0.0,0
5620.0,0.08,0.0,3.24,0
5622.0,0.78,0.0,0.61,0
5624.0,1.7,3.3,0.05,0
5626.0,1.61,3.3,0.05,0
5628.0,2.53,0.0,0.0,0
5630.0,0.0,0.0,3.24,0
5633.0,0.77,0.0,0.93,0
5635.0,1.25,3.3,0.05,0
5637.0,2.12,3.3,0.06,0
5639.0,2.18,0.0,0.0,0
5641.0,0.0,0.0,3.23,0
5643.0,0.77,0.0,1.42,0
5645.0,1.84,3.3,0.05,0
5647.0,2.12,3.3,0.05,0
5649.0,2.69,0.0,0.0,0
5651.0,0.0,0.0,3.24,0
5653.0,1.1,0.0,1.29,0
5654.0,1.81,3.3,0.06,0
5656.0,2.37,3.3,0.06,0
5658.0,2.28,0.0,0.0,0
5660.0,1.0,0.0,3.24,0
5662.0,1.75,0.0,1.3,0
5664.0,2.29,3.3,0.06,0
5666.0,2.05,3.3,0.06,0
5668.0,2.44,0.0,0.0,0
5670.0,1.94,0.0,3.23,0
5672.0,2.02,0.0,1.87,0
5675.0,2.15,3.3,0.46,0
5677.0,1.99,3.3,0.39,0
5679.0,1.84,0.0,0.41,0
5681.0,2.56,0.0,3.24,0
5683.0,2.13,0.41,2.31,0
5685.0,1.92,3.3,1.54,0
5687.0,1.52,3.3,1.4,0
5689.0,1.84,0.0,0.98,0
5691.0,2.11,0.0,3.24,0
5693.0,1.77,3.3,2.37,0
5695.0,1.51,3.3,1.78,0
5696.0,1.31,3.3,1.78,0
5698.0,1.08,3.3,1.86,0
5700.0,1.71,0.0,1.82,0
5702.0,1.63,1.21,2.17,0
5704.0,1.46,3.3,2.31,0
5706.0,1.23,3.3,2.4,0
5708.0,1.28,3.3,2.25,0
5710.0,1.53,2.01,2.28,0
5712.0,1.41,3.3,2.44,0
5714.0,1.21,3.3,2.39,0
5716.0,1.07,3.3,2.5,0
5719.0,1.03,3.3,2.52,0
5721.0,1.06,3.3,2.52,0
5723.0,1.14,3.3,2.5,0
5725.0,1.2,3.3,2.62,0
5727.0,1.27,3.3,2.68,0
5729.0,1.26,1.18,2.63,0
5731.0,1.19,1.24,2.72,0
5733.0,1.09,3.3,2.75,0
5735.0,1.05,3.3,2.76,0
5737.0,1.01,3.3,2.79,0
5738.0,0.96,3.3,2.82,0
5740.0,1.0,3.3,2.79,0
5742.0,1.04,3.3,2.68,0
5744.0,1.13,3.3,2.63,0
5746.0,1.26,1.77,2.65,0
5748.0,1.32,0.0,2.76,0
5750.0,1.31,0.0,2.81,0
5752.0,1.18,3.3,3.01,0
5754.0,1.09,3.3,3.09,0
5756.0,1.0,3.3,3.09,0
5758.0,1.02,3.3,3.02,0
5761.0,1.03,3.3,2.91,0
5763.0,1.08,3.3,2.86,0
5765.0,1.1,3.3,2.89,0
5767.0,1.19,0.2,2.81,0
5769.0,1.25,0.0,2.73,0
5771.0,1.24,0.0,2.68,0
5773.0,1.11,3.3,2.71,0
5775.0,1.05,3.3,2.71,0
5777.0,1.0,3.3,2.75,0
5779.0,0.98,3.3,2.71,0
5781.0,1.05,3.3,2.76,0
5782.0,1.17,3.3,2.78,0
5784.0,1.26,3.3,2.84,0
5786.0,1.35,2.49,2.9,0
5788.0,1.42,0.0,3.0,0
5790.0,1.41,0.0,3.24,0
5792.0,1.34,3.3,3.3,0
5794.0,1.33,3.3,3.3,0
5796.0,1.3,3.3,3.3,0
5798.0,1.33,3.3,3.3,0
5800.0,1.35,3.3,3.3,0
5803.0,1.39,3.3,3.3,0
5805.0,1.42,3.3,3.3,0
5807.0,1.52,0.0,3.24,0
5809.0,1.54,0.0,3.24,0
5811.0,1.53,0.0,3.24,0
5813.0,1.46,3.3,3.3,0
5815.0,1.4,3.3,3.3,0
5817.0,1.25,3.3,3.3,0
5819.0,1.16,3.3,3.11,0
5821.0,1.12,3.3,2.94,0
5823.0,1.16,3.3,2.85,0
5824.0,1.2,3.3,2.73,0
5826.0,1.24,0.0,2.51,0
5828.0,1.22,0.0,2.43,0
5830.0,1.2,0.0,2.3,0
5832.0,1.09,3.3,2.25,0
5834.0,1.03,3.3,2.12,0
5836.0,0.9,3.3,2.01,0
5838.0,0.9,3.3,1.85,0
5840.0,0.93,3.3,1.75,0
5842.0,1.0,3.3,1.55,0
5844.0,1.01,3.3,1.4,0
5847.0,1.14,0.0,1.16,0
5849.0,1.18,0.0,1.07,0
5851.0,1.16,0.0,0.92,0
5853.0,1.02,3.3,0.89,0
5855.0,0.95,3.3,0.73,0
5857.0,0.92,3.3,0.57,0
5859.0,0.98,3.3,0.42,0
5861.0,1.06,3.3,0.29,0
5863.0,1.17,3.3,0.1,0
5865.0,1.3,3.3,0.06,0
5867.0,1.43,0.0,0.0,0
5868.0,1.47,0.0,0.0,0
5870.0,1.46,0.0,0.0,0
5872.0,1.36,0.0,0.0,0
5874.0,1.32,3.3,0.07,0
5876.0,1.24,3.3,0.06,0
5878.0,1.25,3.3,0.06,0
5880.0,1.23,3.3,0.06,0
5882.0,1.31,3.3,0.06,0
5884.0,1.39,0.58,0.0,0
5886.0,1.46,0.0,0.0,0
5889.0,1.41,0.0,0.0,0
5891.0,1.37,0.0,0.0,0
5893.0,1.25,0.0,0.0,0
5895.0,1.21,3.3,0.06,0
5897.0,1.11,3.3,0.06,0
5899.0,1.15,3.3,0.05,0
5901.0,1.18,3.3,0.06,0
5903.0,1.2,3.3,0.06,0
5905.0,1.24,0.0,0.0,0
5907.0,1.32,0.0,0.0,0
5909.0,1.31,0.0,0.0,0
5910.0,1.24,0.0,0.0,0
5912.0,1.19,0.0,0.0,0
5914.0,1.16,0.76,0.02,0
5916.0,1.11,3.3,0.06,0
5918.0,1.1,3.3,0.05,0
5920.0,1.09,3.3,0.06,0
5922.0,1.12,3.3,0.07,0
5924.0,1.18,0.0,0.0,0
5926.0,1.27,0.0,0.0,0
5928.0,1.31,0.0,0.0,0
5931.0,1.32,0.0,0.0,0
5933.0,1.22,0.0,0.0,0
5935.0,1.17,0.38,0.01,0
5937.0,1.09,3.3,0.07,0
5939.0,1.11,3.3,0.06,0
5941.0,1.12,3.3,0.06,0
5943.0,1.22,3.3,0.06,0
5945.0,1.29,0.0,0.0,0
5947.0,1.46,0.0,0.0,0
5949.0,1.54,0.0,0.0,0
5951.0,1.55,0.0,0.0,0
5952.0,1.49,0.0,0.0,0
5954.0,1.42,0.21,0.0,0
5956.0,1.31,3.3,0.05,0
5958.0,1.25,3.3,0.05,0
5960.0,1.33,3.3,0.06,0
5962.0,1.45,3.3,0.05,0
5964.0,1.53,0.0,0.0,0
5966.0,1.59,0.0,0.0,0
5968.0,1.57,0.0,0.0,0
5970.0,1.57,0.0,0.0,0
5972.0,1.45,0.0,0.24,0
5975.0,1.34,1.33,0.49,0
5977.0,1.25,3.3,0.57,0
5979.0,1.26,3.3,0.62,0
5981.0,1.26,3.3,0.7,0
5983.0,1.27,3.3,0.91,0
5985.0,1.27,1.07,0.93,0
5987.0,1.34,0.0,1.03,0
5989.0,1.36,0.0,1.15,0
5991.0,1.27,0.0,1.28,0
5993.0,1.1,0.0,1.4,0
5995.0,1.03,2.34,1.57,0
5996.0,0.96,3.3,1.65,0
5998.0,1.02,3.3,1.69,0
6000.0,1.07,3.3,1.72,0
6002.0,1.2,3.3,1.86,0
6004.0,1.24,1.39,1.93,0
6006.0,1.28,0.0,2.05,0
6008.0,1.29,0.0,2.19,0
6010.0,1.35,0.0,2.34,0
6012.0,1.31,0.0,2.46,0
6014.0,1.31,1.29,2.61,0
6017.0,1.29,3.3,2.7,0
6019.0,1.32,3.3,2.71,0
6021.0,1.41,3.3,2.64,0
6023.0,1.47,3.3,2.54,0
6025.0,1.6,0.0,2.38,0
6027.0,1.73,0.0,2.26,0
6029.0,1.75,0.0,2.2,0
6031.0,1.73,0.0,2.16,0
6033.0,1.68,0.0,2.11,0
6035.0,1.62,0.0,2.12,0
6037.0,1.51,3.3,2.24,0
6038.0,1.46,3.3,2.23,0
6040.0,1.45,3.3,2.3,0
6042.0,1.5,2.62,2.3,0
6044.0,1.49,0.0,2.23,0
6046.0,1.57,0.0,2.25,0
6048.0,1.48,0.0,2.27,0
6050.0,1.27,0.0,2.29,0
6052.0,1.0,0.0,2.37,0
6054.0,0.84,0.0,2.29,0
6056.0,0.71,3.3,2.25,0
6059.0,0.65,3.3,2.11,0
6061.0,0.64,3.3,2.12,0
6063.0,0.7,0.0,2.03,0
6065.0,0.69,0.0,1.83,0
6067.0,0.82,0.0,1.56,0
6069.0,0.74,0.0,1.24,0
6071.0,0.72,0.0,1.03,0
6073.0,0.59,0.0,1.06,0
6075.0,0.52,0.0,1.21,0
6077.0,0.55,3.3,1.21,0
6079.0,0.6,3.3,0.63,0
6080.0,0.66,3.3,0.35,0
6082.0,0.75,0.0,0.11,0
6084.0,0.88,0.0,0.07,0
6086.0,1.02,0.0,0.13,0
6088.0,1.09,0.0,0.22,0
6090.0,1.14,0.0,0.32,0
6092.0,1.11,0.0,0.3,0
6094.0,1.03,0.06,0.33,0
6096.0,0.98,3.3,0.42,0
6098.0,0.99,3.3,0.46,0
6100.0,0.97,3.3,0.61,0
6103.0,1.09,0.0,0.58,0
6105.0,1.17,0.0,0.55,0
6107.0,1.22,0.0,0.66,0
6109.0,1.16,0.0,0.83,0
6111.0,1.07,0.0,0.99,0
6113.0,0.93,0.0,1.07,0
6115.0,0.91,3.3,1.12,0
6117.0,0.92,3.3,1.12,0
6119.0,1.01,3.3,1.23,0
6121.0,1.07,3.3,1.36,0
6123.0,1.17,3.3,1.53,0
6124.0,1.21,0.0,1.72,0
6126.0,1.31,0.0,1.91,0
6128.0,1.31,0.0,1.93,0
6130.0,1.26,0.0,1.84,0
6132.0,1.1,0.0,1.86,0
6134.0,1.03,3.3,1.91,0
6136.0,0.99,3.3,1.81,0
6138.0,1.09,3.3,1.86,0
6140.0,1.17,3.3,1.85,0
6142.0,1.29,3.3,1.73,0
6145.0,1.32,0.0,1.67,0
6147.0,1.41,0.0,1.69,0
6149.0,1.4,0.0,1.8,0
6151.0,1.39,0.0,1.94,0
6153.0,1.28,0.0,2.12,0
6155.0,1.18,3.3,2.36,0
6157.0,1.16,3.3,2.53,0
6159.0,1.19,3.3,3.03,0
6161.0,1.2,3.3,3.3,0
6163.0,1.31,3.3,3.3,0
6165.0,1.42,0.0,3.25,0
6166.0,1.52,0.0,3.25,0
6168.0,1.55,0.0,3.25,0
6170.0,1.52,0.0,3.25,0
6172.0,1.47,0.0,3.25,0
6174.0,1.48,3.3,3.3,0
6176.0,1.27,3.3,3.3,0
6178.0,1.41,3.3,3.3,0
6180.0,1.61,3.3,3.3,0
6182.0,1.74,3.3,3.3,0
6184.0,1.84,0.0,3.25,0
6187.0,2.0,0.0,3.25,0
6189.0,1.94,0.0,3.25,0
6191.0,1.91,0.0,3.25,0
6193.0,1.81,0.0,3.25,0
6195.0,1.81,3.3,3.3,0
6197.0,1.78,3.3,3.3,0
6199.0,1.73,3.3,3.3,0
6201.0,1.69,3.3,3.3,0
6203.0,1.7,3.3,3.3,0
6205.0,1.75,0.0,3.25,0
6207.0,1.81,0.0,3.25,0
6208.0,1.83,0.0,3.25,0
6210.0,1.87,0.0,3.25,0
6212.0,1.77,0.0,3.25,0
6214.0,1.72,3.3,3.3,0
6216.0,1.61,3.3,3.3,0
6218.0,1.61,3.3,3.3,0
6220.0,1.67,3.3,3.3,0
6222.0,1.73,3.3,3.3,0
6224.0,1.71,0.47,3.25,0
6226.0,1.71,0.0,3.25,0
6228.0,1.63,0.0,3.25,0
6231.0,1.55,0.0,3.25,0
6233.0,1.51,0.0,3.25,0
6235.0,1.54,3.3,3.3,0
6237.0,1.53,3.3,3.3,0
6239.0,1.62,3.3,3.3,0
6241.0,1.67,3.3,3.25,0
6243.0,1.7,3.3,3.1,0
6245.0,1.75,0.0,2.98,0
6247.0,1.85,0.0,2.88,0
6249.0,1.84,0.0,2.76,0
6251.0,1.83,0.0,2.73,0
6252.0,1.72,0.0,2.75,0
6254.0,1.64,3.3,2.66,0
6256.0,1.55,3.3,2.52,0
6258.0,1.55,3.3,2.49,0
6260.0,1.61,3.3,2.42,0
6262.0,1.73,3.3,2.36,0
6264.0,1.8,0.0,2.17,0
6266.0,1.9,0.0,2.16,0
6268.0,1.92,0.0,2.3,0
6270.0,1.88,0.0,2.27,0
6273.0,1.77,0.0,2.27,0
6275.0,1.69,3.3,2.33,0
6277.0,1.66,3.3,2.28,0
6279.0,1.71,3.3,2.15,0
6281.0,1.73,3.3,2.16,0
6283.0,1.84,3.3,2.11,0
6285.0,1.91,0.0,2.05,0
6287.0,2.0,0.0,1.87,0
6289.0,2.0,0.0,1.98,0
6291.0,1.96,0.0,2.22,0
6293.0,1.86,0.0,2.27,0
6294.0,1.83,1.77,2.3,0
6296.0,1.77,3.3,2.35,0
6298.0,1.82,3.3,2.47,0
6300.0,1.87,3.3,2.54,0
6302.0,1.95,3.3,2.61,0
6304.0,2.02,0.0,2.53,0
6306.0,2.04,0.0,2.53,0
6308.0,2.03,0.0,2.55,0
6310.0,2.08,0.0,2.53,0
6312.0,1.94,0.0,2.49,0
6315.0,1.9,0.79,2.44,0
6317.0,1.87,3.3,2.56,0
6319.0,1.9,3.3,2.69,0
6321.0,1.89,3.3,2.76,0
6323.0,1.96,3.3,2.8,0
6325.0,2.06,0.0,2.76,0
6327.0,2.17,0.0,2.75,0
6329.0,2.19,0.0,2.72,0
6331.0,2.16,0.0,2.77,0
6333.0,2.07,0.0,2.66,0
6335.0,2.05,2.45,2.62,0
6336.0,1.97,3.3,2.48,0
6338.0,2.02,3.3,2.44,0
6340.0,2.09,3.3,2.26,0
6342.0,2.16,3.3,2.27,0
6344.0,2.16,1.56,2.2,0
6346.0,2.28,0.0,2.13,0
6348.0,2.25,0.0,1.94,0
6350.0,2.2,0.0,1.9,0
6352.0,2.08,0.0,2.06,0
6354.0,1.95,3.3,2.21,0
6356.0,1.84,3.3,2.08,0
6359.0,1.78,3.3,1.9,0
6361.0,1.77,3.3,1.95,0
6363.0,1.82,3.3,1.87,0
6365.0,1.92,0.71,1.65,0
6367.0,2.1,0.0,1.58,0
6369.0,2.13,0.0,1.52,0
6371.0,2.14,0.0,1.45,0
6373.0,2.05,0.0,1.46,0
6375.0,2.02,3.3,1.58,0
6377.0,1.99,3.3,1.47,0
6379.0,1.93,3.3,1.27,0
6380.0,1.78,3.3,1.08,0
6382.0,1.82,3.3,1.03,0
6384.0,1.91,0.0,0.97,0
6386.0,1.99,0.0,0.93,0
6388.0,1.96,0.0,0.93,0
6390.0,2.0,0.0,0.95,0
6392.0,1.95,0.0,0.95,0
6394.0,1.83,0.74,1.02,0
6396.0,1.67,3.3,1.06,0
6398.0,1.64,3.3,1.09,0
6401.0,1.73,3.3,1.1,0
6403.0,1.96,3.3,1.08,0
6405.0,2.14,0.0,0.97,0
6407.0,2.2,0.0,0.97,0
6409.0,2.14,0.0,1.0,0
6411.0,2.13,0.0,1.07,0
6413.0,2.04,0.0,1.04,0
6415.0,2.01,0.0,1.1,0
6417.0,1.96,3.3,1.22,0
6419.0,2.03,3.3,1.37,0
6421.0,2.08,3.3,1.55,0
6422.0,2.14,0.0,1.5,0
6424.0,2.25,0.0,1.53,0
6426.0,2.4,0.0,1.56,0
6428.0,2.38,0.0,1.54,0
6430.0,2.33,0.0,1.55,0
6432.0,2.19,0.0,1.56,0
6434.0,2.06,0.0,1.56,0
6436.0,2.01,3.3,1.65,0
6438.0,2.04,3.3,1.7,0
6440.0,2.06,3.3,1.69,0
6443.0,2.21,0.0,1.56,0
6445.0,2.28,0.0,1.53,0
6447.0,2.32,0.0,1.51,0
6449.0,2.34,0.0,1.59,0
6451.0,2.28,0.0,1.65,0
6453.0,2.04,0.0,1.65,0
6455.0,1.99,0.0,1.7,0
6457.0,1.92,3.3,1.75,0
6459.0,1.88,3.3,1.67,0
6461.0,1.87,3.3,1.65,0
6463.0,1.96,0.0,1.53,0
6464.0,1.96,0.0,1.49,0
6466.0,1.94,0.0,1.48,0
6468.0,1.85,0.0,1.42,0
6470.0,1.7,0.0,1.35,0
6472.0,1.46,0.0,1.3,0
6474.0,1.36,0.0,1.29,0
6476.0,1.26,3.3,1.34,0
6478.0,1.22,3.3,1.28,0
6480.0,1.18,3.3,1.24,0
6482.0,1.22,0.0,1.07,0
6484.0,1.18,0.0,1.03,0
6487.0,1.21,0.0,1.03,0
6489.0,1.1,0.0,1.03,0
6491.0,0.98,0.0,1.02,0
6493.0,0.79,0.0,1.03,0
6495.0,0.74,0.0,1.03,0
6497.0,0.67,3.3,1.03,0
6499.0,0.63,3.3,0.97,0
6501.0,0.63,3.3,0.95,0
6503.0,0.68,0.0,0.82,0
6505.0,0.73,0.0,0.82,0
6507.0,0.79,0.0,0.8,0
6508.0,0.77,0.0,0.76,0
6510.0,0.69,0.0,0.77,0
6512.0,0.53,0.0,0.79,0
6514.0,0.47,0.0,0.83,0
6516.0,0.34,3.3,0.87,0
6518.0,0.33,3.3,0.82,0
6520.0,0.39,3.3,0.8,0
6522.0,0.52,0.0,0.77,0
6524.0,0.64,0.0,0.84,0
6526.0,0.68,0.0,0.81,0
6529.0,0.65,0.0,0.87,0
6531.0,0.6,0.0,0.87,0
6533.0,0.44,0.0,0.87,0
6535.0,0.33,0.0,0.86,0
6537.0,0.27,3.3,0.94,0
6539.0,0.26,3.3,0.91,0
6541.0,0.28,3.3,0.93,0
6543.0,0.34,0.0,0.85,0
6545.0,0.39,0.0,0.84,0
6547.0,0.45,0.0,0.82,0
6549.0,0.45,0.0,0.81,0
6550.0,0.42,0.0,0.86,0
6552.0,0.29,0.0,0.88,0
6554.0,0.27,0.0,0.88,0
6556.0,0.23,3.3,1.02,0
6558.0,0.19,3.3,1.05,0
6560.0,0.26,3.3,1.09,0
6562.0,0.43,0.0,0.98,0
6564.0,0.51,0.0,0.93,0
6566.0,0.59,0.0,0.98,0
6568.0,0.66,0.0,1.06,0
6571.0,0.68,0.0,1.07,0
6573.0,0.6,0.0,1.08,0
6575.0,0.61,0.0,1.19,0
6577.0,0.55,3.3,1.3,0
6579.0,0.61,3.3,1.33,0
6581.0,0.66,3.3,1.36,0
6583.0,0.77,0.0,1.25,0
6585.0,0.84,0.0,1.2,0
6587.0,0.95,0.0,1.16,0
6589.0,0.97,0.0,1.1,0
6591.0,0.95,0.0,1.04,0
6592.0,0.85,0.0,1.02,0
6594.0,0.83,0.0,1.05,0
6596.0,0.83,3.3,1.16,0
6598.0,0.86,3.3,1.12,0
6600.0,0.95,3.3,1.16,0
6602.0,1.05,0.0,1.09,0
6604.0,1.12,0.0,1.03,0
6606.0,1.3,0.0,0.99,0
6608.0,1.38,0.0,0.99,0
6610.0,1.35,0.0,1.0,0
6612.0,1.25,0.0,1.05,0
6615.0,1.25,0.0,1.1,0
6617.0,1.18,3.3,1.22,0
6619.0,1.2,3.3,1.26,0
6621.0,1.25,3.3,1.31,0
6623.0,1.27,0.0,1.25,0
6625.0,1.29,0.0,1.31,0
6627.0,1.4,0.0,1.39,0
6629.0,1.39,0.0,1.44,0
6631.0,1.34,0.0,1.45,0
6633.0,1.21,0.0,1.47,0
6635.0,1.15,0.88,1.52,0
6636.0,1.12,3.3,1.6,0
6638.0,1.19,3.3,1.57,0
6640.0,1.28,3.3,1.59,0
6642.0,1.43,0.0,1.47,0
6644.0,1.55,0.0,1.48,0
6646.0,1.66,0.0,1.83,0
6648.0,1.64,0.0,2.35,0
6650.0,1.62,0.0,2.55,0
6652.0,1.51,0.0,2.56,0
6654.0,1.46,1.86,2.58,0
6657.0,1.28,3.3,2.54,0
6659.0,1.14,3.3,2.46,0
6661.0,1.15,3.3,2.35,0
6663.0,1.27,0.0,2.18,0
6665.0,1.35,0.0,2.07,0
6667.0,1.4,0.0,2.02,0
6669.0,1.49,0.0,1.95,0
6671.0,1.55,0.0,1.95,0
6673.0,1.52,0.0,1.92,0
6675.0,1.5,1.8,1.89,0
6677.0,1.38,3.3,1.87,0
6678.0,1.37,3.3,1.79,0
6680.0,1.39,3.3,1.73,0
6682.0,1.46,0.72,1.55,0
6684.0,1.52,0.0,1.49,0
6686.0,1.64,0.0,1.45,0
6688.0,1.66,0.0,1.48,0
6690.0,1.59,0.0,1.5,0
6692.0,1.47,0.0,1.49,0
6694.0,1.36,3.3,1.47,0
6696.0,1.27,3.3,1.37,0
6699.0,1.28,3.3,1.31,0
6701.0,1.32,3.3,1.27,0
6703.0,1.45,3.3,1.18,0
6705.0,1.5,0.0,1.14,0
6707.0,1.55,0.0,1.13,0
6709.0,1.52,0.0,1.11,0
6711.0,1.52,0.0,1.02,0
6713.0,1.42,0.0,1.02,0
6715.0,1.32,3.3,1.07,0
6717.0,1.23,3.3,1.13,0
6719.0,1.2,3.3,1.15,0
6720.0,1.22,3.3,1.14,0
6722.0,1.31,3.3,1.09,0
6724.0,1.36,3.3,1.04,0
6726.0,1.42,0.0,0.98,0
6728.0,1.41,0.0,1.01,0
6730.0,1.45,0.0,1.11,0
6732.0,1.39,3.3,1.26,0
6734.0,1.36,3.3,1.29,0
6736.0,1.35,3.3,1.32,0
6738.0,1.42,3.3,1.27,0
6740.0,1.47,3.3,1.15,0
6743.0,1.52,3.3,1.08,0
6745.0,1.52,0.0,1.03,0
6747.0,1.54,0.0,0.99,0
6749.0,1.51,0.0,1.01,0
6751.0,1.48,0.0,1.06,0
6753.0,1.38,3.3,1.12,0
6755.0,1.33,3.3,1.11,0
6757.0,1.31,3.3,1.11,0
6759.0,1.33,3.3,1.09,0
6761.0,1.37,3.3,1.07,0
6763.0,1.5,3.3,1.06,0
6764.0,1.57,0.0,0.96,0
6766.0,1.65,0.0,0.91,0
6768.0,1.65,0.0,0.91,0
6770.0,1.64,0.0,0.92,0
6772.0,1.56,0.85,0.89,0
6774.0,1.5,3.3,0.85,0
6776.0,1.44,3.3,0.84,0
6778.0,1.45,3.3,0.86,0
6780.0,1.45,3.3,0.89,0
6782.0,1.53,3.27,0.96,0
6785.0,1.54,0.0,0.86,0
6787.0,1.6,0.0,0.87,0
6789.0,1.57,0.0,0.87,0
6791.0,1.52,0.0,0.89,0
6793.0,1.38,0.0,0.86,0
6795.0,1.3,3.3,0.94,0
6797.0,1.23,3.3,0.96,0
6799.0,1.21,3.3,0.94,0
6801.0,1.25,3.3,0.91,0
6803.0,1.32,0.0,0.85,0
6805.0,1.37,0.0,0.86,0
6806.0,1.43,0.0,0.99,0
6808.0,1.42,0.0,1.07,0
6810.0,1.41,0.0,1.09,0
6812.0,1.35,0.37,1.09,0
6814.0,1.34,3.3,1.15,0
6816.0,1.27,3.3,1.15,0
6818.0,1.25,3.3,1.18,0
6820.0,1.29,3.3,1.19,0
6822.0,1.31,2.98,1.11,0
6824.0,1.39,0.0,1.06,0
6827.0,1.48,0.0,1.12,0
6829.0,1.48,0.0,1.18,0
6831.0,1.45,0.0,1.21,0
6833.0,1.36,3.3,1.36,0
6835.0,1.3,3.3,1.33,0
6837.0,1.22,3.3,1.29,0
6839.0,1.21,3.3,1.2,0
6841.0,1.2,3.3,1.18,0
6843.0,1.25,3.3,1.28,0
6845.0,1.3,0.0,1.3,0
6847.0,1.39,0.0,1.36,0
6849.0,1.43,0.0,1.29,0
6850.0,1.42,0.0,1.33,0
6852.0,1.4,3.3,1.54,0
6854.0,1.42,3.3,1.54,0
6856.0,1.46,3.3,1.66,0
6858.0,1.55,3.3,1.81,0
6860.0,1.6,3.3,1.74,0
6862.0,1.63,0.0,1.51,0
6864.0,1.71,0.0,1.43,0
6866.0,1.74,0.0,1.49,0
6868.0,1.71,0.0,1.55,0
6871.0,1.7,0.0,1.55,0
6873.0,1.59,0.0,1.67,0
6875.0,1.48,3.3,1.86,0
6877.0,1.45,3.3,1.89,0
6879.0,1.47,3.3,1.98,0
6881.0,1.48,3.3,1.94,0
6883.0,1.55,0.0,1.71,0
6885.0,1.59,0.0,1.71,0
6887.0,1.61,0.0,1.72,0
6889.0,1.55,0.0,1.66,0
6891.0,1.49,0.0,1.65,0
6892.0,1.4,0.0,1.58,0
6894.0,1.38,3.3,1.65,0
6896.0,1.35,3.3,1.56,0
6898.0,1.38,3.3,1.54,0
6900.0,1.41,3.3,1.54,0
6902.0,1.43,0.0,1.52,0
6904.0,1.45,0.0,1.51,0
6906.0,1.5,0.0,1.4,0
6908.0,1.53,0.0,1.47,0
6910.0,1.49,0.0,1.28,0
6913.0,1.39,0.0,1.18,0
6915.0,1.35,3.3,1.34,0
6917.0,1.29,3.3,1.3,0
6919.0,1.31,3.3,1.05,0
6921.0,1.34,3.3,0.9,0
6923.0,1.36,0.0,0.86,0
6925.0,1.38,0.0,1.09,0
6927.0,1.42,0.0,1.26,0
6929.0,1.42,0.0,1.32,0
6931.0,1.42,0.0,1.22,0
6933.0,1.33,0.0,1.21,0
6934.0,1.28,3.3,1.26,0
6936.0,1.27,3.3,1.34,0
6938.0,1.33,3.3,1.35,0
6940.0,1.39,3.3,1.27,0
6942.0,1.51,0.0,1.2,0
6944.0,1.56,0.0,1.0,0
6946.0,1.59,0.0,1.06,0
6948.0,1.55,0.0,1.21,0
6950.0,1.51,0.0,1.25,0
6952.0,1.38,0.0,1.38,0
6955.0,1.35,3.3,1.44,0
6957.0,1.3,3.3,1.35,0
6959.0,1.34,3.3,1.21,0
6961.0,1.37,3.3,1.19,0
6963.0,1.46,0.0,0.99,0
6965.0,1.47,0.0,0.84,0
6967.0,1.49,0.0,0.79,0
6969.0,1.49,0.0,0.85,0
6971.0,1.47,0.0,0.94,0
6973.0,1.38,0.0,1.1,0
6975.0,1.35,3.3,1.28,0
6977.0,1.32,3.3,1.31,0
6978.0,1.33,3.3,1.25,0
6980.0,1.36,3.3,1.13,0
6982.0,1.45,0.0,1.12,0
6984.0,1.51,0.0,1.19,0
6986.0,1.55,0.0,1.17,0
6988.0,1.54,0.0,1.19,0
6990.0,1.51,0.0,1.18,0
6992.0,1.43,0.0,1.3,0
6994.0,1.37,3.3,1.39,0
6996.0,1.35,3.3,1.39,0
6999.0,1.37,3.3,1.43,0
7001.0,1.41,3.3,1.45,0
7003.0,1.54,0.0,1.35,0
7005.0,1.63,0.0,1.28,0
7007.0,1.68,0.0,1.32,0
7009.0,1.68,0.0,1.32,0
7011.0,1.66,0.0,1.36,0
7013.0,1.53,0.0,1.46,0
7015.0,1.48,3.3,1.51,0
7017.0,1.43,3.3,1.42,0
7019.0,1.42,3.3,1.32,0
7020.0,1.43,3.3,1.31,0
7022.0,1.48,1.36,1.28,0
7024.0,1.51,0.0,1.32,0
7026.0,1.55,0.0,1.22,0
7028.0,1.55,0.0,1.2,0
7030.0,1.51,0.0,1.19,0
7032.0,1.41,0.7,1.18,0
7034.0,1.36,3.3,1.08,0
7036.0,1.32,3.3,1.05,0
7038.0,1.31,3.3,1.1,0
7041.0,1.29,3.3,0.99,0
7043.0,1.35,2.2,0.99,0
7045.0,1.42,0.0,0.88,0
7047.0,1.47,0.0,0.93,0
7049.0,1.51,0.0,0.97,0
7051.0,1.48,0.0,1.03,0
7053.0,1.35,1.39,1.1,0
7055.0,1.29,3.3,1.2,0
7057.0,1.24,3.3,1.15,0
7059.0,1.19,3.3,1.24,0
7061.0,1.18,3.3,1.31,0
7062.0,1.26,3.22,1.35,0
7064.0,1.36,0.0,1.34,0
7066.0,1.39,0.0,1.43,0
7068.0,1.34,0.0,1.46,0
7070.0,1.32,0.0,1.43,0
7072.0,1.23,0.0,1.36,0
7074.0,1.23,3.3,1.42,0
7076.0,1.19,3.3,1.4,0
7078.0,1.25,3.3,1.31,0
7080.0,1.29,3.3,1.38,0
7083.0,1.4,1.55,1.41,0
7085.0,1.45,0.0,1.33,0
7087.0,1.49,0.0,1.21,0
7089.0,1.48,0.0,1.28,0
7091.0,1.44,0.0,1.3,0
7093.0,1.34,0.18,1.35,0
7095.0,1.33,3.3,1.4,0
7097.0,1.27,3.3,1.4,0
7099.0,1.32,3.3,1.36,0
7101.0,1.38,3.3,1.34,0
7103.0,1.44,0.18,1.23,0
7105.0,1.51,0.0,1.22,0
7106.0,1.57,0.0,1.24,0
7108.0,1.59,0.0,1.33,0
7110.0,1.56,0.0,1.37,0
7112.0,1.47,0.0,1.38,0
7114.0,1.43,3.3,1.54,0
7116.0,1.39,3.3,1.53,0
7118.0,1.42,3.3,1.5,0
7120.0,1.48,3.3,1.48,0
7122.0,1.6,0.51,1.37,0
7124.0,1.67,0.0,1.32,0
7127.0,1.71,0.0,1.27,0
7129.0,1.7,0.0,1.25,0
7131.0,1.64,0.0,1.22,0
7133.0,1.53,0.31,1.25,0
7135.0,1.46,3.3,1.34,0
7137.0,1.39,3.3,1.32,0
7139.0,1.42,3.3,1.32,0
7141.0,1.49,3.3,1.29,0
7143.0,1.6,1.63,2.15,0
7145.0,1.64,0.0,3.24,0
7147.0,1.72,0.0,3.24,0
7148.0,1.72,0.0,3.25,0
7150.0,1.67,0.0,3.24,0
7152.0,1.58,0.27,3.25,0
7154.0,1.52,3.3,3.3,0
7156.0,1.45,3.3,3.3,0
7158.0,1.46,3.3,3.3,0
7160.0,1.46,3.3,3.24,0
7162.0,1.52,0.0,3.05,0
7164.0,1.58,0.0,2.98,0
7166.0,1.62,0.0,2.88,0
7169.0,1.62,0.0,2.71,0
7171.0,1.55,0.0,2.62,0
7173.0,1.44,0.0,2.51,0
7175.0,1.4,3.3,2.5,0
7177.0,1.39,3.3,2.36,0
7179.0,1.43,3.3,2.19,0
7181.0,1.45,3.3,2.07,0
7183.0,1.58,0.0,1.89,0
7185.0,1.65,0.0,1.74,0
7187.0,1.68,0.0,1.66,0
7189.0,1.68,0.0,1.64,0
7190.0,1.7,0.0,1.65,0
7192.0,1.63,0.0,1.66,0
7194.0,1.57,3.3,1.64,0
7196.0,1.49,3.3,1.49,0
7198.0,1.47,3.3,1.41,0
7200.0,1.48,3.3,1.39,0
7202.0,1.5,0.0,1.28,0
7204.0,1.53,0.0,1.26,0
7206.0,1.56,0.0,1.34,0
7208.0,1.56,0.0,1.4,0
7211.0,1.52,0.0,1.32,0
7213.0,1.4,0.0,1.24,0
7215.0,1.34,3.3,1.19,0
7217.0,1.29,3.3,1.07,0
7219.0,1.35,3.3,1.01,0
7221.0,1.41,3.3,1.05,0
7223.0,1.51,0.0,0.96,0
7225.0,1.62,0.0,0.91,0
7227.0,1.69,0.0,0.93,0
7229.0,1.69,0.0,0.98,0
7231.0,1.62,0.0,0.95,0
7233.0,1.48,0.0,0.99,0
7234.0,1.42,3.3,1.1,0
7236.0,1.36,3.3,1.07,0
7238.0,1.35,3.3,1.01,0
7240.0,1.41,3.3,0.9,0
7242.0,1.49,0.0,0.8,0
7244.0,1.52,0.0,0.84,0
7246.0,1.57,0.0,0.89,0
7248.0,1.55,0.0,0.94,0
7250.0,1.48,0.0,0.98,0
7252.0,1.38,0.27,0.92,0
7255.0,1.38,3.3,0.88,0
7257.0,1.33,3.3,0.81,0
7259.0,1.34,3.3,0.82,0
7261.0,1.35,3.3,0.8,0
7263.0,1.38,0.0,0.76,0
7265.0,1.43,0.0,0.77,0
7267.0,1.54,0.0,0.75,0
7269.0,1.58,0.0,0.8,0
7271.0,1.6,0.0,0.88,0
7273.0,1.44,0.0,0.91,0
7275.0,1.37,3.3,0.95,0
7276.0,1.37,3.3,0.96,0
7278.0,1.37,3.3,0.94,0
7280.0,1.4,3.3,0.96,0
7282.0,1.46,0.0,0.96,0
7284.0,1.51,0.0,1.0,0
7286.0,1.59,0.0,1.0,0
7288.0,1.6,0.0,0.86,0
7290.0,1.57,0.0,0.8,0
7292.0,1.47,0.0,0.73,0
7294.0,1.42,1.17,0.78,0
7297.0,1.39,3.3,0.87,0
7299.0,1.46,3.3,0.88,0
7301.0,1.5,1.57,0.77,0
7303.0,1.53,0.0,0.72,0
7305.0,1.59,0.0,0.72,0
7307.0,1.67,0.0,0.7,0
7309.0,1.65,0.0,0.73,0
7311.0,1.58,0.0,0.79,0
7313.0,1.44,0.0,0.85,0
7315.0,1.37,0.62,0.95,0
7317.0,1.33,3.3,1.02,0
7318.0,1.35,3.3,1.02,0
7320.0,1.42,2.13,1.02,0
7322.0,1.47,0.0,0.87,0
7324.0,1.53,0.0,0.95,0
7326.0,1.6,0.0,1.07,0
7328.0,1.58,0.0,1.1,0
7330.0,1.55,0.0,1.17,0
7332.0,1.45,0.0,1.22,0
7334.0,1.35,0.46,1.27,0
7336.0,1.3,3.3,1.35,0
7339.0,1.32,3.3,1.34,0
7341.0,1.34,2.27,1.33,0
7343.0,1.36,0.0,1.31,0
7345.0,1.42,0.0,1.33,0
7347.0,1.51,0.0,1.32,0
7349.0,1.53,0.0,1.34,0
7351.0,1.48,0.0,1.39,0
7353.0,1.38,0.0,1.45,0
7355.0,1.35,2.12,1.48,0
7357.0,1.29,3.3,1.47,0
7359.0,1.33,3.3,1.43,0
7361.0,1.39,3.3,1.4,0
7362.0,1.43,0.0,1.28,0
7364.0,1.54,0.0,1.19,0
7366.0,1.61,0.0,1.18,0
7368.0,1.56,0.0,1.23,0
7370.0,1.55,0.0,1.25,0
7372.0,1.49,0.0,1.3,0
7374.0,1.43,3.3,1.41,0
7376.0,1.35,3.3,1.42,0
7378.0,1.36,3.3,1.45,0
7380.0,1.4,3.3,1.48,0
7383.0,1.37,0.0,1.38,0
7385.0,1.42,0.0,1.33,0
7387.0,1.48,0.0,1.31,0
7389.0,1.51,0.0,1.28,0
7391.0,1.45,0.0,1.28,0
7393.0,1.35,3.2,1.34,0
7395.0,1.3,3.3,1.29,0
7397.0,1.28,3.3,1.28,0
7399.0,1.29,3.3,1.25,0
7401.0,1.28,3.3,1.25,0
7403.0,1.28,3.3,1.27,0
7404.0,1.3,0.0,1.2,0
7406.0,1.39,0.0,1.23,0
7408.0,1.36,0.0,1.25,0
7410.0,1.3,0.0,1.21,0
7412.0,1.24,3.3,1.29,0
7414.0,1.2,3.3,1.33,0
7416.0,1.17,3.3,1.39,0
7418.0,1.18,3.3,1.43,0
7420.0,1.23,3.3,1.41,0
7422.0,1.31,3.3,1.4,0
7425.0,1.35,0.0,1.35,0
7427.0,1.4,0.0,1.4,0
7429.0,1.39,0.0,1.47,0
7431.0,1.36,0.0,1.52,0
7433.0,1.31,3.3,1.61,0
7435.0,1.25,3.3,1.63,0
7437.0,1.19,3.3,1.6,0
7439.0,1.19,3.3,1.56,0
7441.0,1.22,3.3,1.52,0
7443.0,1.31,3.3,1.5,0
7445.0,1.36,0.0,1.42,0
7446.0,1.43,0.0,1.43,0
7448.0,1.46,0.0,1.45,0
7450.0,1.48,0.0,1.43,0
7452.0,1.49,3.3,1.5,0
7454.0,1.48,3.3,1.55,0
7456.0,1.49,3.3,1.59,0
7458.0,1.56,3.3,1.58,0
7460.0,1.57,3.3,1.57,0
7462.0,1.65,1.72,1.53,0
7464.0,1.73,0.0,1.53,0
7467.0,1.79,0.0,1.55,0
7469.0,1.76,0.0,1.52,0
7471.0,1.76,0.0,1.51,0
7473.0,1.79,2.59,1.6,0
7475.0,1.69,3.3,1.65,0
7477.0,1.61,3.3,1.66,0
7479.0,1.6,3.3,1.66,0
7481.0,1.58,3.3,1.65,0
7483.0,1.62,0.0,1.55,0
7485.0,1.69,0.0,1.57,0
7487.0,1.76,0.0,1.58,0
7489.0,1.73,0.0,1.56,0
7490.0,1.71,0.0,1.56,0
7492.0,1.63,0.77,1.6,0
7494.0,1.55,3.3,1.67,0
7496.0,1.54,3.3,1.68,0
7498.0,1.57,3.3,1.63,0
7500.0,1.55,3.3,1.57,0
7502.0,1.57,0.0,1.5,0
7504.0,1.65,0.0,1.51,0
7506.0,1.79,0.0,1.46,0
7508.0,1.82,0.0,1.39,0
7511.0,1.75,0.0,1.33,0
7513.0,1.6,0.24,1.27,0
7515.0,1.58,3.3,1.28,0
7517.0,1.57,3.3,1.25,0
7519.0,1.59,3.3,1.27,0
7521.0,1.6,3.3,1.24,0
7523.0,1.6,0.0,1.13,0
7525.0,1.59,0.0,1.1,0
7527.0,1.61,0.0,1.06,0
7529.0,1.61,0.0,1.06,0
7531.0,1.63,0.0,1.02,0
7532.0,1.53,0.01,1.03,0
7534.0,1.45,3.3,1.15,0
7536.0,1.41,3.3,1.18,0
7538.0,1.42,3.3,1.21,0
7540.0,1.44,3.3,1.21,0
7542.0,1.45,0.0,1.14,0
7544.0,1.43,0.0,1.16,0
7546.0,1.42,0.0,1.18,0
7548.0,1.42,0.0,1.22,0
7550.0,1.41,0.0,1.24,0
7553.0,1.33,0.0,1.25,0
7555.0,1.26,3.3,1.33,0
7557.0,1.17,3.3,1.33,0
7559.0,1.23,3.3,1.29,0
7561.0,1.25,3.3,1.25,0
7563.0,1.31,0.0,1.16,0
7565.0,1.31,0.0,1.18,0
7567.0,1.35,0.0,1.21,0
7569.0,1.35,0.0,1.28,0
7571.0,1.34,0.0,1.34,0
7573.0,1.27,0.05,1.4,0
7574.0,1.25,3.3,1.52,0
7576.0,1.26,3.3,1.55,0
7578.0,1.31,3.3,1.53,0
7580.0,1.38,3.3,1.53,0
7582.0,1.41,0.0,1.46,0
7584.0,1.47,0.0,1.47,0
7586.0,1.54,0.0,1.5,0
7588.0,1.51,0.0,1.5,0
7590.0,1.46,0.0,1.48,0
7592.0,1.43,0.07,1.5,0
7595.0,1.44,3.3,1.59,0
7597.0,1.44,3.3,1.59,0
7599.0,1.5,3.3,1.54,0
7601.0,1.59,3.3,1.54,0
7603.0,1.74,0.0,1.46,0
7605.0,1.82,0.0,1.46,0
7607.0,1.85,0.0,1.48,0
7609.0,1.79,0.0,1.45,0
7611.0,1.71,0.0,1.48,0
7613.0,1.62,0.27,1.48,0
7615.0,1.55,3.3,1.51,0
7617.0,1.5,3.3,1.44,0
7618.0,1.48,3.3,1.37,0
7620.0,1.5,3.3,1.27,0
7622.0,1.61,0.0,1.13,0
7624.0,1.68,0.0,1.08,0
7626.0,1.7,0.0,1.06,0
7628.0,1.68,0.0,1.05,0
7630.0,1.66,0.0,1.06,0
7632.0,1.56,0.8,1.09,0
7634.0,1.48,3.3,1.17,0
7636.0,1.42,3.3,1.19,0
7639.0,1.4,3.3,1.22,0
7641.0,1.44,3.3,1.24,0
7643.0,1.47,0.0,1.18,0
7645.0,1.54,0.0,1.19,0
7647.0,1.59,0.0,1.2,0
7649.0,1.57,0.0,1.22,0
7651.0,1.51,0.0,1.23,0
7653.0,1.43,2.38,1.26,0
7655.0,1.36,3.3,1.28,0
7657.0,1.33,3.3,1.32,0
7659.0,1.37,3.3,1.34,0
7660.0,1.39,3.3,1.37,0
7662.0,1.42,0.0,1.25,0
7664.0,1.46,0.0,1.2,0
7666.0,1.53,0.0,1.17,0
7668.0,1.52,0.0,1.22,0
7670.0,1.5,0.0,1.22,0
7672.0,1.51,2.7,1.26,0
7674.0,1.48,3.3,1.26,0
7676.0,1.47,3.3,1.22,0
7678.0,1.49,3.3,1.22,0
7681.0,1.49,3.3,1.23,0
7683.0,1.52,0.0,1.24,0
7685.0,1.48,0.0,1.24,0
7687.0,1.49,0.0,1.31,0
7689.0,1.48,0.0,1.32,0
7691.0,1.43,0.0,1.28,0
7693.0,1.37,1.13,1.23,0
7695.0,1.36,3.3,1.23,0
7697.0,1.32,3.3,1.26,0
7699.0,1.36,3.3,1.25,0
7701.0,1.38,3.3,1.22,0
7702.0,1.43,0.0,1.2,0
7704.0,1.44,0.0,1.23,0
7706.0,1.44,0.0,1.26,0
7708.0,1.44,0.0,1.24,0
7710.0,1.44,0.0,1.28,0
7712.0,1.38,0.0,1.35,0
7714.0,1.33,3.3,1.48,0
7716.0,1.32,3.3,1.57,0
7718.0,1.34,3.3,1.59,0
7720.0,1.36,2.81,1.62,0
7723.0,1.42,0.0,1.56,0
7725.0,1.49,0.0,1.57,0
7727.0,1.52,0.0,1.54,0
7729.0,1.5,0.0,1.56,0
7731.0,1.5,0.0,1.59,0
7733.0,1.44,0.0,1.62,0
7735.0,1.37,3.3,1.71,0
7737.0,1.37,3.3,1.77,0
7739.0,1.37,3.3,1.7,0
7741.0,1.36,3.3,1.55,0
7743.0,1.41,0.0,1.36,0
7745.0,1.42,0.0,1.35,0
7746.0,1.47,0.0,1.26,0
7748.0,1.49,0.0,1.26,0
7750.0,1.46,0.0,1.25,0
7752.0,1.41,1.23,1.39,0
7754.0,1.36,3.3,1.52,0
7756.0,1.31,3.3,1.52,0
7758.0,1.28,3.3,1.47,0
7760.0,1.3,3.3,1.52,0
7762.0,1.35,0.0,1.59,0
7764.0,1.37,0.0,1.64,0
7767.0,1.38,0.0,1.6,0
7769.0,1.37,0.0,1.51,0
7771.0,1.35,0.0,1.57,0
7773.0,1.31,1.9,1.63,0
7775.0,1.27,3.3,1.64,0
7777.0,1.23,3.3,1.7,0
7779.0,1.22,3.3,1.75,0
7781.0,1.21,3.3,1.79,0
7783.0,1.27,0.0,1.76,0
7785.0,1.29,0.0,1.71,0
7787.0,1.31,0.0,1.67,0
7788.0,1.34,0.0,1.58,0
7790.0,1.31,0.0,1.56,0
7792.0,1.26,1.84,1.64,0
7794.0,1.16,3.3,1.67,0
7796.0,1.19,3.3,1.71,0
7798.0,1.21,3.3,1.65,0
7800.0,1.22,3.3,1.58,0
7802.0,1.26,0.0,1.39,0
7804.0,1.26,0.0,1.3,0
7806.0,1.28,0.0,1.29,0
7809.0,1.28,0.0,1.32,0
7811.0,1.25,0.0,1.29,0
7813.0,1.21,2.07,1.28,0
7815.0,1.19,3.3,1.28,0
7817.0,1.15,3.3,1.29,0
7819.0,1.18,3.3,1.28,0
7821.0,1.22,3.3,1.33,0
7823.0,1.28,0.0,1.28,0
7825.0,1.32,0.0,1.26,0
7827.0,1.32,0.0,1.23,0
7829.0,1.33,0.0,1.28,0
7830.0,1.25,0.0,1.35,0
7832.0,1.26,2.16,1.4,0
7834.0,1.26,3.3,1.4,0
7836.0,1.22,3.3,1.33,0
7838.0,1.24,3.3,1.25,0
7840.0,1.29,3.3,1.2,0
7842.0,1.37,0.0,1.11,0
7844.0,1.43,0.0,1.11,0
7846.0,1.51,0.0,1.13,0
7848.0,1.47,0.0,1.16,0
7851.0,1.45,0.0,1.2,0
7853.0,1.44,1.61,1.21,0
7855.0,1.42,3.3,1.27,0
7857.0,1.35,3.3,1.24,0
7859.0,1.32,3.3,1.17,0
7861.0,1.33,3.3,1.14,0
7863.0,1.4,0.0,1.09,0
7865.0,1.47,0.0,1.1,0
7867.0,1.48,0.0,1.12,0
7869.0,1.45,0.0,1.12,0
7871.0,1.43,0.0,1.12,0
7873.0,1.4,1.09,1.15,0
7874.0,1.33,3.3,1.22,0
7876.0,1.3,3.3,1.28,0
7878.0,1.36,3.3,1.3,0
7880.0,1.41,3.3,1.31,0
7882.0,1.47,0.0,1.29,0
7884.0,1.53,0.0,1.35,0
7886.0,1.59,0.0,1.39,0
7888.0,1.58,0.0,1.44,0
7890.0,1.56,0.0,1.52,0
7892.0,1.49,0.49,1.59,0
7895.0,1.44,3.3,1.73,0
7897.0,1.48,3.3,1.79,0
7899.0,1.53,3.3,1.71,0
7901.0,1.56,3.3,1.74,0
7903.0,1.61,0.0,1.72,0
7905.0,1.67,0.0,1.74,0
7907.0,1.74,0.0,1.71,0
7909.0,1.83,0.0,1.68,0
7911.0,1.79,0.0,1.68,0
7913.0,1.73,0.0,1.72,0
7915.0,1.68,3.3,1.85,0
7916.0,1.68,3.3,1.95,0
7918.0,1.75,3.3,1.98,0
7920.0,1.79,3.3,1.94,0
7922.0,1.88,0.0,1.84,0
7924.0,1.92,0.0,1.8,0
7926.0,1.93,0.0,1.75,0
7928.0,1.91,0.0,1.73,0
7930.0,1.85,0.0,1.7,0
7932.0,1.81,0.0,1.63,0
7934.0,1.8,3.3,1.75,0
7937.0,1.76,3.3,1.76,0
7939.0,1.75,3.3,1.73,0
7941.0,1.84,3.3,1.73,0
7943.0,1.94,0.0,1.67,0
7945.0,1.97,0.0,1.69,0
7947.0,2.07,0.0,1.71,0
7949.0,2.08,0.0,1.73,0
7951.0,2.06,0.0,1.71,0
7953.0,2.05,0.0,1.7,0
7955.0,2.0,3.3,1.75,0
7957.0,1.89,3.3,1.74,0
7958.0,1.87,3.3,1.71,0
7960.0,1.93,3.3,1.66,0
7962.0,2.04,0.0,1.57,0
7964.0,2.01,0.0,1.5,0
7966.0,1.97,0.0,1.53,0
7968.0,1.96,0.0,1.54,0
7970.0,1.87,0.0,1.55,0
7972.0,1.8,0.0,1.55,0
7974.0,1.74,3.3,1.65,0
7976.0,1.68,3.3,1.64,0
7979.0,1.71,3.3,1.59,0
7981.0,1.73,3.3,1.55,0
7983.0,1.77,0.0,1.48,0
7985.0,1.82,0.0,1.48,0
7987.0,1.83,0.0,1.44,0
7989.0,1.78,0.0,1.43,0
7991.0,1.69,0.0,1.43,0
7993.0,1.57,0.0,1.41,0
7995.0,1.54,3.3,1.49,0
7997.0,1.55,3.3,1.51,0
7999.0,1.54,3.3,1.5,0
8001.0,1.58,3.3,1.48,0
8002.0,1.65,0.0,1.42,0
8004.0,1.67,0.0,1.42,0
8006.0,1.69,0.0,1.42,0
8008.0,1.59,0.0,1.44,0
8010.0,1.51,0.0,1.47,0
8012.0,1.44,0.0,1.5,0
8014.0,1.43,3.3,1.63,0
8016.0,1.37,3.3,1.65,0
8018.0,1.39,3.3,1.63,0
8020.0,1.42,3.3,1.6,0
8023.0,1.44,0.0,1.53,0
8025.0,1.4,0.0,1.54,0
8027.0,1.46,0.0,1.56,0
8029.0,1.45,0.0,1.57,0
8031.0,1.39,0.0,1.64,0
8033.0,1.35,0.0,1.68,0
8035.0,1.29,3.3,1.76,0
8037.0,1.21,3.3,1.76,0
8039.0,1.17,3.3,1.75,0
8041.0,1.17,3.3,1.72,0
8043.0,1.23,0.0,1.65,0
8044.0,1.24,0.0,1.64,0
8046.0,1.24,0.0,1.65,0
8048.0,1.2,0.0,1.62,0
8050.0,1.11,0.0,1.63,0
8052.0,1.02,0.0,1.61,0
8054.0,0.96,3.3,1.67,0
8056.0,0.92,3.3,1.66,0
8058.0,0.95,3.3,1.63,0
8060.0,0.97,3.3,1.6,0
8062.0,1.02,0.0,1.51,0
8065.0,1.08,0.0,1.48,0
8067.0,1.22,0.0,1.46,0
8069.0,1.16,0.0,1.47,0
8071.0,1.1,0.0,1.5,0
8073.0,1.03,0.0,1.51,0
8075.0,0.98,3.3,1.57,0
8077.0,0.87,3.3,1.54,0
8079.0,0.84,3.3,1.54,0
8081.0,0.89,3.3,1.54,0
8083.0,1.14,0.0,1.48,0
8085.0,1.24,0.0,1.47,0
8086.0,1.31,0.0,1.46,0
8088.0,1.32,0.0,1.49,0
8090.0,1.32,0.0,1.55,0
8092.0,1.26,0.0,1.79,0
8094.0,1.18,3.3,1.94,0
8096.0,1.17,3.3,1.95,0
8098.0,1.2,3.3,1.92,0
8100.0,1.22,3.3,1.91,0
8102.0,1.21,0.0,1.78,0
8104.0,1.28,0.0,1.76,0
8107.0,1.32,0.0,1.7,0
8109.0,1.33,0.0,1.67,0
8111.0,1.3,0.0,1.65,0
8113.0,1.2,0.0,1.63,0
8115.0,1.11,3.3,1.65,0
8117.0,1.08,3.3,1.61,0
8119.0,1.09,3.3,1.56,0
8121.0,1.13,3.12,1.49,0
8123.0,1.22,0.0,1.36,0
8125.0,1.34,0.0,1.33,0
8127.0,1.43,0.0,1.28,0
8129.0,1.43,0.0,1.23,0
8130.0,1.38,0.0,1.22,0
8132.0,1.32,0.0,1.19,0
8134.0,1.3,3.3,1.25,0
8136.0,1.27,3.3,1.25,0
8138.0,1.23,3.3,1.22,0
8140.0,1.25,3.0,1.17,0
8142.0,1.32,0.0,1.07,0
8144.0,1.37,0.0,1.06,0
8146.0,1.41,0.0,1.08,0
8148.0,1.4,0.0,1.17,0
8151.0,1.36,0.0,1.2,0
8153.0,1.29,0.0,1.17,0
8155.0,1.24,3.3,1.25,0
8157.0,1.24,3.3,1.24,0
8159.0,1.27,3.3,1.23,0
8161.0,1.28,2.92,1.15,0
8163.0,1.3,0.0,1.03,0
8165.0,1.35,0.0,0.97,0
8167.0,1.36,0.0,0.87,0
8169.0,1.31,0.0,0.84,0
8171.0,1.22,0.0,0.8,0
8172.0,1.16,0.0,0.85,0
8174.0,1.14,3.3,1.02,0
8176.0,1.14,3.3,1.0,0
8178.0,1.22,3.3,0.94,0
8180.0,1.28,2.83,0.79,0
8182.0,1.31,0.0,0.77,0
8184.0,1.32,0.0,0.78,0
8186.0,1.34,0.0,0.79,0
8188.0,1.3,0.0,0.85,0
8190.0,1.25,0.0,0.86,0
8193.0,1.15,0.0,0.84,0
8195.0,1.17,3.3,0.89,0
8197.0,1.16,3.3,0.88,0
8199.0,1.22,3.3,0.89,0
8201.0,1.38,2.8,0.84,0
8203.0,1.47,0.0,0.0,0
8205.0,1.49,0.0,0.0,0
8207.0,1.54,0.0,0.0,0
8209.0,1.55,0.0,0.0,0
8211.0,1.52,0.0,0.0,0
8213.0,1.45,0.0,0.0,0
8215.0,1.43,3.3,0.05,0
8216.0,1.36,3.3,0.05,0
8218.0,1.29,3.3,0.05,0
8220.0,1.2,2.86,0.04,0
8222.0,1.19,0.0,0.0,0
8224.0,1.16,0.0,0.0,0
8226.0,1.22,0.0,0.0,0
8228.0,1.23,0.0,0.15,0
8230.0,1.26,0.0,0.3,0
8232.0,1.26,0.0,0.51,0
8235.0,1.26,3.3,0.75,0
8237.0,1.19,3.3,0.91,0
8239.0,1.23,3.3,1.3,0
8241.0,1.29,3.3,1.67,0
8243.0,1.3,0.0,1.84,0
8245.0,1.31,0.0,2.05,0
8247.0,1.36,0.0,2.31,0
8249.0,1.39,0.0,2.5,0
8251.0,1.3,0.0,2.63,0
8253.0,1.2,0.0,2.66,0
8255.0,1.16,3.3,2.77,0
8257.0,1.11,3.3,2.89,0
8258.0,1.08,3.3,3.03,0
8260.0,1.07,3.3,2.84,0
8262.0,1.11,0.0,2.6,0
8264.0,1.23,0.0,2.3,0
8266.0,1.27,0.0,2.05,0
8268.0,1.27,0.0,1.85,0
8270.0,1.2,0.0,1.61,0
8272.0,1.12,0.0,1.23,0
8274.0,1.12,3.3,1.03,0
8276.0,1.11,3.3,0.8,0
8279.0,1.13,3.3,0.48,0
8281.0,1.15,3.3,0.36,0
8283.0,1.22,0.0,0.34,0
8285.0,1.28,0.0,0.41,0
8287.0,1.37,0.0,0.36,0
8289.0,1.35,0.0,0.34,0
8291.0,1.3,0.0,0.48,0
8293.0,1.27,0.0,0.57,0
8295.0,1.24,3.3,0.85,0
8297.0,1.25,3.3,1.1,0
8299.0,1.33,3.3,1.2,0
8300.0,1.36,3.3,1.19,0
8302.0,1.33,0.0,1.22,0
8304.0,1.41,0.0,1.32,0
8306.0,1.47,0.0,1.44,0
8308.0,1.45,0.0,1.24,0
8310.0,1.45,0.0,0.0,0
8312.0,1.36,0.0,0.0,0
8314.0,1.35,3.3,0.1,0
8316.0,1.34,3.3,0.29,0
8318.0,1.39,3.3,0.44,0
8321.0,1.4,3.3,0.63,0
8323.0,1.43,0.0,0.76,0
8325.0,1.48,0.0,0.92,0
8327.0,1.53,0.0,1.15,0
8329.0,1.53,0.0,1.41,0
8331.0,1.51,0.0,1.59,0
8333.0,1.46,0.0,1.68,0
8335.0,1.42,3.3,1.84,0
8337.0,1.37,3.3,1.82,0
8339.0,1.4,3.3,1.66,0
8341.0,1.48,3.3,1.56,0
8343.0,1.57,0.0,0.98,0
8344.0,1.77,0.0,0.73,0
8346.0,1.92,0.0,0.59,0
8348.0,1.93,0.0,0.5,0
8350.0,1.91,0.0,0.43,0
8352.0,1.85,0.0,0.41,0
8354.0,1.87,3.3,0.52,0
8356.0,1.87,3.3,0.68,0
8358.0,1.85,3.3,0.84,0
8360.0,1.84,3.3,0.97,0
8363.0,1.84,0.0,0.9,0
8365.0,1.82,0.0,0.86,0
8367.0,1.77,0.0,0.9,0
8369.0,1.65,0.0,1.03,0
8371.0,1.53,0.0,1.24,0
8373.0,1.47,0.0,1.44,0
8375.0,1.43,3.3,1.65,0
8377.0,1.37,3.3,1.78,0
8379.0,1.36,3.3,1.91,0
8381.0,1.4,3.3,2.12,0
8383.0,1.52,0.0,2.35,0
8385.0,1.55,0.0,2.68,0
8386.0,1.57,0.0,2.81,0
8388.0,1.56,0.0,2.39,0
8390.0,1.49,0.0,2.41,0
8392.0,1.43,0.0,2.76,0
8394.0,1.36,3.3,3.28,0
8396.0,1.33,3.3,3.3,0
8398.0,1.31,3.3,3.3,0
8400.0,1.33,3.3,3.3,0
8402.0,1.39,0.0,3.25,0
8404.0,1.42,0.0,3.24,0
8407.0,1.46,0.0,3.24,0
8409.0,1.44,0.0,3.24,0
8411.0,1.36,0.0,3.24,0
8413.0,1.27,0.0,3.24,0
8415.0,1.26,1.27,3.27,0
8417.0,1.23,3.3,3.3,0
8419.0,1.17,3.3,3.3,0
8421.0,1.24,2.71,3.28,0
8423.0,1.32,0.0,3.24,0
8425.0,1.41,0.0,3.24,0
8427.0,1.49,0.0,3.24,0
8428.0,1.49,0.0,3.25,0
8430.0,1.42,0.0,3.24,0
8432.0,1.32,0.0,3.24,0
8434.0,1.28,0.0,3.24,0
8436.0,1.31,3.3,3.23,0
8438.0,1.42,3.3,3.1,0
8440.0,1.52,1.34,2.92,0
8442.0,1.55,0.0,2.78,0
8444.0,1.62,0.0,2.63,0
8446.0,1.67,0.0,2.48,0
8449.0,1.58,0.0,2.36,0
8451.0,1.5,0.0,2.27,0
8453.0,1.4,0.0,2.2,0
8455.0,1.35,0.0,2.16,0
8457.0,1.25,3.3,2.22,0
8459.0,1.29,3.3,2.2,0
8461.0,1.33,1.15,2.05,0
8463.0,1.34,0.0,1.95,0
8465.0,1.36,0.0,1.86,0
8467.0,1.41,0.0,1.83,0
8469.0,1.41,0.0,1.78,0
8471.0,1.39,0.07,1.76,0
8472.0,1.31,0.3,1.74,0
8474.0,1.26,0.54,1.76,0
8476.0,1.21,3.22,1.81,0
8478.0,1.22,3.13,1.73,0
8480.0,1.24,1.65,1.63,0
8482.0,1.16,0.98,1.6,0
8484.0,1.13,1.06,1.57,0
8486.0,0.76,1.22,1.54,0
8488.0,0.35,1.37,1.46,0
8491.0,0.05,1.52,1.4,0
8493.0,0.0,1.66,1.29,0
8495.0,0.0,1.78,1.25,0
8497.0,0.0,3.22,1.23,0
8499.0,0.0,2.56,1.21,0
8501.0,0.0,2.06,1.12,0
8503.0,0.0,2.03,1.09,0
8505.0,0.01,2.11,1.06,0
8507.0,0.11,2.18,0.98,0
8509.0,0.12,2.25,0.9,0
8511.0,0.0,2.32,0.91,0
8513.0,0.0,2.38,0.84,0
8514.0,0.0,2.44,0.04,0
8516.0,0.0,3.3,0.06,0
8518.0,0.0,2.93,0.05,0
8520.0,0.0,2.6,0.04,0
8522.0,0.0,2.47,0.04,0
8524.0,0.12,2.49,0.04,0
8526.0,0.14,2.52,0.04,0
8528.0,0.16,2.55,0.03,0
8530.0,0.19,2.58,0.03,0
8532.0,0.16,2.61,0.03,0
8535.0,0.13,2.63,0.11,0
8537.0,0.11,3.3,0.25,0
8539.0,0.96,2.9,0.48,0
8541.0,1.86,2.64,0.68,0
8543.0,2.05,2.61,0.89,0
8545.0,2.13,2.61,1.01,0
8547.0,2.07,2.62,1.15,0
8549.0,1.78,2.63,1.29,0
8551.0,1.16,2.64,1.75,0
8553.0,0.83,2.64,2.48,0
8555.0,0.71,2.65,2.76,0
8556.0,0.66,2.66,2.85,0
8558.0,0.59,2.66,2.84,0
8560.0,0.39,2.65,2.81,0
8562.0,0.35,2.64,2.75,0
8564.0,0.39,2.64,2.67,0
8566.0,0.48,2.63,2.59,0
8568.0,0.54,2.62,2.51,0
8570.0,0.54,2.61,2.4,0
8572.0,0.46,2.61,2.26,0
8574.0,0.46,2.6,2.16,0
8577.0,0.44,2.6,2.06,0
8579.0,0.5,2.59,1.99,0
8581.0,0.68,2.57,1.88,0
8583.0,0.88,2.56,1.8,0
8585.0,1.07,2.54,1.74,0
8587.0,1.2,2.53,1.65,0
8589.0,1.29,2.52,1.65,0
8591.0,1.32,2.51,1.7,0
8593.0,1.3,2.49,1.7,0
8595.0,1.27,2.48,1.65,0
8597.0,1.26,2.48,1.56,0
8599.0,1.33,2.46,1.51,0
8600.0,1.42,2.45,1.46,0
8602.0,1.5,2.43,1.45,0
8604.0,1.6,2.41,1.42,0
8606.0,1.69,2.4,1.45,0
8608.0,1.75,2.38,1.52,0
8610.0,1.78,2.37,1.57,0
8612.0,1.8,2.36,1.57,0
8614.0,1.8,2.35,1.6,0
8616.0,1.8,2.34,1.6,0
8619.0,1.85,2.33,1.6,0
8621.0,1.92,2.31,1.63,0
8623.0,1.98,2.29,1.7,0
8625.0,2.09,2.27,1.73,0
8627.0,2.16,2.26,1.76,0
8629.0,2.21,2.25,1.78,0
8631.0,2.14,2.24,1.78,0
8633.0,2.09,2.22,1.78,0
8635.0,2.05,2.21,1.82,0
8637.0,1.99,2.2,1.86,0
8639.0,2.03,2.19,1.89,0
8641.0,2.07,2.18,1.98,0
8642.0,2.1,2.16,2.0,0
8644.0,2.09,2.15,2.06,0
8646.0,2.1,2.13,2.17,0
8648.0,2.02,2.12,2.25,0
8650.0,1.94,2.11,2.31,0
8652.0,1.86,2.1,2.3,0
8654.0,1.72,2.09,2.32,0
8656.0,1.63,2.08,2.3,0
8658.0,1.64,2.07,2.27,0
8660.0,1.67,2.06,2.22,0
8663.0,1.71,2.05,2.16,0
8665.0,1.78,2.03,2.08,0
8667.0,1.87,2.02,2.0,0
8669.0,1.9,2.01,1.95,0
8671.0,1.93,2.0,1.92,0
8673.0,1.93,1.99,1.87,0
8675.0,1.89,1.98,1.83,0
8677.0,1.85,1.98,1.76,0
8679.0,1.92,1.97,1.73,0
8681.0,1.98,1.96,1.68,0
8683.0,2.02,1.95,1.63,0
8684.0,2.08,1.94,1.59,0
8686.0,2.15,1.93,1.58,0
8688.0,2.15,1.92,1.56,0
8690.0,2.12,1.91,1.53,0
8692.0,2.06,1.9,1.52,0
8694.0,2.03,1.89,1.53,0
8696.0,2.03,1.89,1.6,0
8698.0,2.02,1.89,2.51,0
8700.0,2.05,1.87,2.81,0
8702.0,2.15,1.86,2.87,0
8705.0,2.23,1.85,2.85,0
8707.0,2.27,1.84,2.82,0
8709.0,2.27,1.84,2.78,0
8711.0,2.25,1.83,2.82,0
8713.0,2.25,1.82,2.8,0
8715.0,2.3,1.82,2.76,0
8717.0,2.35,1.82,2.69,0
8719.0,2.38,1.82,2.6,0
8721.0,2.46,1.8,2.53,0
8723.0,2.51,1.79,2.46,0
8725.0,2.52,1.78,2.43,0
8727.0,2.48,1.77,2.39,0
8728.0,2.41,1.77,2.36,0
8730.0,2.35,1.76,2.34,0
8732.0,2.27,1.76,2.35,0
8734.0,2.16,1.75,2.41,0
8736.0,2.1,1.76,2.46,0
8738.0,2.08,1.75,2.52,0
8740.0,2.06,1.75,2.6,0
8742.0,2.03,1.73,2.68,0
8744.0,2.09,1.73,2.73,0
8747.0,2.12,1.72,2.96,0
8749.0,2.08,1.72,3.27,0
8751.0,2.03,1.71,3.26,0
8753.0,1.94,1.71,3.27,0
8755.0,1.85,1.71,3.27,0
8757.0,1.81,1.71,3.27,0
8759.0,1.78,1.7,3.26,0
8761.0,1.79,1.7,3.26,0
8763.0,1.8,1.69,3.26,0
8765.0,1.83,1.68,3.26,0
8767.0,1.85,1.68,3.26,0
8769.0,1.84,1.67,3.26,0
8770.0,1.78,1.67,3.26,0
8772.0,1.71,1.66,3.23,0
8774.0,1.66,1.66,3.15,0
8776.0,1.65,1.68,3.15,0
8778.0,1.68,1.68,3.02,0
8780.0,1.71,1.66,2.83,0
8782.0,1.71,1.65,2.65,0
8784.0,1.78,1.64,2.45,0
8786.0,1.86,1.63,2.3,0
8788.0,1.87,1.63,2.19,0
8791.0,1.85,1.63,2.15,0
8793.0,1.85,1.62,2.15,0
8795.0,1.75,1.62,2.09,0
8797.0,1.63,3.3,2.15,0
8799.0,1.62,3.3,2.15,0
8801.0,1.67,2.37,2.02,0
8803.0,1.73,0.44,1.93,0
8805.0,1.81,0.25,1.96,0
8807.0,1.89,0.33,1.97,0
8809.0,1.87,0.42,2.01,0
8811.0,1.76,0.52,2.01,0
8812.0,1.62,0.61,1.77,0
8814.0,1.65,0.69,1.62,0
8816.0,1.66,3.3,1.55,0
8818.0,1.65,3.3,1.54,0
8820.0,1.67,2.39,1.45,0
8822.0,1.72,0.0,1.31,0
8824.0,1.76,0.0,1.15,0
8826.0,1.76,0.0,1.05,0
8828.0,1.72,0.0,0.73,0
8830.0,1.58,0.0,0.46,0
8833.0,1.45,0.0,0.32,0
8835.0,1.37,3.3,0.25,0
8837.0,1.33,3.3,0.23,0
8839.0,1.33,3.3,0.15,0
8841.0,1.37,3.3,0.05,0
8843.0,1.34,1.44,0.01,0
8845.0,1.35,0.0,0.0,0
8847.0,1.27,0.0,0.0,0
8849.0,1.19,0.0,0.0,0
8851.0,1.14,0.0,0.0,0
8853.0,1.16,0.0,0.0,0
8855.0,1.12,3.3,0.1,0
8856.0,1.11,3.3,0.06,0
8858.0,1.19,3.3,0.06,0
8860.0,1.25,3.3,0.06,0
8862.0,1.29,0.0,0.0,0
8864.0,1.38,0.0,0.0,0
8866.0,1.43,0.0,0.0,0
8868.0,1.44,0.0,0.0,0
8870.0,1.44,0.0,0.15,0
8872.0,1.41,0.0,0.46,0
8875.0,1.45,3.3,0.81,0
8877.0,1.47,3.3,0.97,0
8879.0,1.48,3.3,1.13,0
8881.0,1.53,3.3,1.43,0
8883.0,1.54,0.0,1.54,0
8885.0,1.61,0.0,1.62,0
8887.0,1.6,0.0,1.63,0
8889.0,1.52,0.0,1.55,0
8891.0,1.47,0.0,1.53,0
8893.0,1.41,0.0,1.46,0
8895.0,1.37,1.82,1.43,0
8897.0,1.28,3.3,1.27,0
8898.0,1.32,3.3,1.05,0
8900.0,1.41,1.33,0.89,0
8902.0,1.47,0.0,0.86,0
8904.0,1.61,0.0,0.82,0
8906.0,1.66,0.0,0.3,0
8908.0,1.61,0.0,0.09,0
8910.0,1.55,0.0,0.0,0
8912.0,1.54,0.0,0.0,0
8914.0,1.5,0.21,0.0,0
8916.0,1.45,3.3,0.05,0
8919.0,1.51,3.3,0.05,0
8921.0,1.54,0.16,0.0,0
8923.0,1.6,0.0,0.0,0
8925.0,1.69,0.0,0.0,0
8927.0,1.73,0.0,0.0,0
8929.0,1.72,0.0,0.0,0
8931.0,1.7,0.0,0.0,0
8933.0,1.68,0.0,0.0,0
8935.0,1.67,1.98,0.1,0
8937.0,1.67,3.3,0.21,0
8939.0,1.73,3.3,0.4,0
8940.0,1.76,1.03,0.51,0
8942.0,1.84,0.0,0.63,0
8944.0,1.88,0.0,0.78,0
8946.0,1.84,0.0,0.8,0
8948.0,1.8,0.0,0.77,0
8950.0,1.79,0.0,0.72,0
8952.0,1.65,0.0,0.61,0
8954.0,1.52,3.3,0.68,0
8956.0,1.48,3.3,0.3,0
8958.0,1.5,3.3,0.08,0
8961.0,1.47,3.3,0.06,0
8963.0,1.5,3.3,0.08,0
8965.0,1.61,0.0,0.18,0
8967.0,1.7,0.0,0.55,0
8969.0,1.69,0.0,0.85,0
8971.0,1.65,0.93,1.13,0
8973.0,1.6,3.3,1.45,0
8975.0,1.58,3.3,1.56,0
8977.0,1.63,3.3,1.57,0
8979.0,1.71,3.3,1.49,0
8981.0,1.74,3.3,1.45,0
8983.0,1.73,3.3,1.24,0
8984.0,1.7,0.54,1.06,0
8986.0,1.68,0.0,1.1,0
8988.0,1.55,0.0,1.1,0
8990.0,1.44,3.3,1.22,0
8992.0,1.39,3.3,1.18,0
8994.0,1.27,3.3,1.16,0
8996.0,1.25,3.3,1.08,0
8998.0,1.17,3.3,0.98,0
9000.0,1.16,3.3,0.83,0
9003.0,1.22,3.3,0.84,0
9005.0,1.25,0.09,0.86,0
9007.0,1.28,0.0,1.0,0
9009.0,1.27,0.0,1.09,0
9011.0,1.15,3.3,1.19,0
9013.0,1.11,3.3,1.11,0
9015.0,1.08,3.3,1.1,0
9017.0,1.04,3.3,1.09,0
9019.0,1.14,3.3,1.15,0
9021.0,1.21,3.3,1.12,0
9023.0,1.24,3.3,0.96,0
9025.0,1.29,0.0,0.74,0
9026.0,1.28,0.0,0.71,0
9028.0,1.23,0.0,0.77,0
9030.0,1.19,0.0,0.71,0
9032.0,1.17,3.3,0.66,0
9034.0,1.17,3.3,0.6,0
9036.0,1.24,3.3,0.55,0
9038.0,1.28,3.3,0.56,0
9040.0,1.32,3.3,0.71,0
9042.0,1.36,3.3,0.67,0
9044.0,1.44,0.0,0.5,0
9047.0,1.46,0.0,0.44,0
9049.0,1.42,0.0,0.45,0
9051.0,1.35,0.0,0.47,0
9053.0,1.25,3.3,0.25,0
9055.0,1.12,3.3,0.05,0
9057.0,1.08,3.3,0.05,0
9059.0,1.07,3.3,0.06,0
9061.0,1.11,3.3,0.05,0
9063.0,1.17,3.3,0.06,0
9065.0,1.2,0.0,0.0,0
9067.0,1.27,0.0,0.0,0
9068.0,1.28,0.0,0.0,0
9070.0,1.2,1.87,0.04,0
9072.0,1.16,3.3,0.05,0
9074.0,1.19,3.3,0.06,0
9076.0,1.25,3.3,0.05,0
9078.0,1.29,3.3,0.05,0
9080.0,1.36,3.3,0.06,0
9082.0,1.44,3.3,0.06,0
9084.0,1.54,0.0,0.0,0
9086.0,1.59,0.0,0.0,0
9089.0,1.54,0.0,0.0,0
9091.0,1.46,1.81,0.04,0
9093.0,1.45,3.3,0.05,0
9095.0,1.43,3.3,0.06,0
9097.0,1.48,3.3,0.05,0
9099.0,1.55,3.3,0.05,0
9101.0,1.67,3.3,0.05,0
9103.0,1.76,3.3,0.12,0
9105.0,1.8,0.0,0.15,0
9107.0,1.78,0.0,0.16,0
9109.0,1.73,0.0,0.28,0
9111.0,1.67,0.0,0.39,0
9112.0,1.53,2.35,0.57,0
9114.0,1.39,3.3,0.76,0
9116.0,1.33,3.3,0.78,0
9118.0,1.37,3.3,0.78,0
9120.0,1.36,3.3,0.73,0
9122.0,1.39,0.0,0.74,0
9124.0,1.39,0.0,0.9,0
9126.0,1.41,0.0,1.02,0
9128.0,1.33,0.0,1.05,0
9131.0,1.2,0.0,1.13,0
9133.0,1.13,0.09,1.04,0
9135.0,1.08,3.3,1.09,0
9137.0,1.05,3.3,1.15,0
9139.0,1.05,3.3,1.09,0
9141.0,1.06,3.3,1.17,0
9143.0,1.05,0.0,1.74,0
9145.0,1.07,0.0,1.82,0
9147.0,1.04,0.0,1.81,0
9149.0,1.0,0.0,1.73,0
9151.0,1.04,0.0,1.69,0
9153.0,1.02,0.0,1.52,0
9154.0,0.97,3.3,1.4,0
9156.0,0.87,3.3,1.24,0
9158.0,0.85,3.3,1.23,0
9160.0,0.92,3.3,1.25,0
9162.0,0.99,0.0,1.15,0
9164.0,1.04,0.0,1.24,0
9166.0,1.03,0.0,1.23,0
9168.0,1.01,0.0,1.22,0
9170.0,0.99,0.0,1.26,0
9172.0,0.96,0.0,1.18,0
9175.0,1.0,3.3,1.13,0
9177.0,0.96,3.3,1.06,0
9179.0,0.99,3.3,0.98,0
9181.0,1.06,3.11,0.92,0
9183.0,1.16,0.0,0.85,0
9185.0,1.2,0.0,0.86,0
9187.0,1.23,0.0,0.87,0
9189.0,1.23,0.0,0.84,0
9191.0,1.22,0.0,0.84,0
9193.0,1.14,2.53,0.84,0
9195.0,1.12,3.3,0.82,0
9196.0,1.22,3.3,0.84,0
9198.0,1.33,3.3,0.84,0
9200.0,1.35,3.3,0.96,0
9202.0,1.38,3.3,1.17,0
9204.0,1.36,0.07,1.22,0
9206.0,1.38,0.0,1.33,0
9208.0,1.36,0.0,1.28,0
9210.0,1.26,3.3,1.36,0
9212.0,1.13,3.3,1.46,0
9214.0,1.21,3.3,1.66,0
9217.0,1.25,3.3,1.76,0
9219.0,1.26,3.3,1.86,0
9221.0,1.27,3.3,1.9,0
9223.0,1.36,3.3,1.96,0
9225.0,1.47,3.3,2.1,0
9227.0,1.56,3.3,2.2,0
9229.0,1.55,3.3,2.3,0
9231.0,1.48,3.3,2.37,0
9233.0,1.51,3.3,2.44,0
9235.0,1.44,3.3,2.5,0
9237.0,1.45,3.3,2.54,0
9239.0,1.52,3.3,2.49,0
9240.0,1.58,3.3,2.41,0
9242.0,1.62,3.3,2.41,0
9244.0,1.65,3.3,2.45,0
9246.0,1.68,3.3,2.45,0
9248.0,1.63,3.3,2.42,0
9250.0,1.58,3.3,2.33,0
9252.0,1.6,3.3,2.31,0
9254.0,1.54,3.3,2.29,0
9256.0,1.53,3.3,2.27,0
9259.0,1.53,3.3,2.31,0
9261.0,1.52,3.3,2.31,0
9263.0,1.58,3.3,2.31,0
9265.0,1.66,3.3,2.29,0
9267.0,1.69,3.3,2.28,0
9269.0,1.73,3.3,2.3,0
9271.0,1.71,3.3,2.29,0
9273.0,1.67,3.3,2.29,0
9275.0,1.62,3.3,2.38,0
9277.0,1.65,3.3,2.36,0
9279.0,1.67,3.3,2.33,0
9281.0,1.7,3.3,2.28,0
9282.0,1.76,3.3,2.39,0
9284.0,1.79,3.3,2.45,0
9286.0,1.82,3.3,2.48,0
9288.0,1.83,3.3,2.46,0
9290.0,1.77,3.3,2.47,0
9292.0,1.74,3.3,2.41,0
9294.0,1.72,3.3,2.41,0
9296.0,1.72,3.3,2.4,0
9298.0,1.78,3.3,2.36,0
9300.0,1.79,3.3,2.32,0
9303.0,1.79,3.3,2.28,0
9305.0,1.85,3.3,2.27,0
9307.0,1.84,3.3,2.21,0
9309.0,1.84,3.3,2.18,0
9311.0,1.8,3.3,2.22,0
9313.0,1.77,3.3,2.21,0
9315.0,1.71,3.3,2.16,0
9317.0,1.69,3.3,2.11,0
9319.0,1.67,3.3,2.12,0
9321.0,1.65,3.3,2.13,0
9323.0,1.79,3.3,2.12,0
9324.0,1.88,3.3,2.12,0
9326.0,1.88,3.3,2.1,0
9328.0,1.86,3.3,2.11,0
9330.0,1.8,3.3,2.14,0
9332.0,1.76,3.3,2.14,0
9334.0,1.7,3.3,2.17,0
9336.0,1.65,3.3,2.16,0
9338.0,1.66,3.3,2.08,0
9340.0,1.69,3.3,2.03,0
9342.0,1.76,3.3,2.1,0
9345.0,1.79,3.3,3.05,0
9347.0,1.85,3.3,3.3,0
9349.0,1.81,3.3,3.26,0
9351.0,1.72,3.3,2.88,0
9353.0,1.69,3.3,2.66,0
9355.0,1.68,3.3,2.56,0
9357.0,1.63,3.3,2.4,0
9359.0,1.63,3.3,2.32,0
9361.0,1.73,3.3,2.25,0
9363.0,1.81,3.3,2.2,0
9365.0,1.85,3.3,2.18,0
9367.0,1.88,3.3,2.12,0
9368.0,1.86,3.3,2.07,0
9370.0,1.8,3.3,1.97,0
9372.0,1.72,3.3,1.94,0
9374.0,1.63,3.3,1.99,0
9376.0,1.57,3.3,1.95,0
9378.0,1.58,3.3,1.88,0
9380.0,1.6,3.3,1.8,0
9382.0,1.67,3.3,1.76,0
9384.0,1.69,3.3,1.75,0
9387.0,1.7,3.3,1.78,0
9389.0,1.64,3.3,1.72,0
9391.0,1.56,3.3,1.68,0
9393.0,1.5,3.3,1.59,0
9395.0,1.46,3.3,1.56,0
9397.0,1.45,3.3,1.54,0
9399.0,1.43,3.3,1.52,0
9401.0,1.42,3.3,1.5,0
9403.0,1.46,3.3,1.48,0
9405.0,1.52,3.3,1.48,0
9407.0,1.52,3.3,1.54,0
9409.0,1.54,3.3,1.56,0
9410.0,1.49,3.3,1.67,0
9412.0,1.41,3.3,1.75,0
9414.0,1.38,3.3,1.83,0
9416.0,1.41,3.3,1.83,0
9418.0,1.36,3.3,1.9,0
9420.0,1.41,3.3,1.98,0
9422.0,1.49,3.3,2.04,0
9424.0,1.6,3.3,2.27,0
9426.0,1.61,3.3,2.23,0
9428.0,1.55,3.3,2.26,0
9431.0,1.45,3.3,2.24,0
9433.0,1.33,3.3,2.25,0
9435.0,1.25,3.3,2.33,0
9437.0,1.24,3.3,2.37,0
9439.0,1.29,3.3,2.36,0
9441.0,1.36,3.3,2.28,0
9443.0,1.42,3.3,2.26,0
9445.0,1.5,3.3,2.28,0
9447.0,1.51,3.3,2.26,0
9449.0,1.48,3.3,2.22,0
9451.0,1.42,3.3,2.15,0
9452.0,1.42,3.3,2.03,0
9454.0,1.44,3.3,1.94,0
9456.0,1.41,3.3,1.91,0
9458.0,1.42,1.98,1.86,0
9460.0,1.44,0.0,1.83,0
9462.0,1.51,0.0,1.86,0
9464.0,1.55,0.0,1.9,0
9466.0,1.55,0.0,1.91,0
9468.0,1.53,0.0,1.96,0
9470.0,1.53,0.0,2.15,0
9473.0,1.47,0.0,2.06,0
9475.0,1.36,0.0,1.97,0
9477.0,1.41,0.0,1.88,0
9479.0,1.5,0.0,1.87,0
9481.0,1.51,0.0,1.93,0
9483.0,1.5,0.0,2.0,0
9485.0,1.59,0.0,2.03,0
9487.0,1.66,0.0,2.01,0
9489.0,1.61,0.0,2.07,0
9491.0,1.54,0.0,2.05,0
9493.0,1.49,0.0,2.0,0
9495.0,1.46,0.0,1.99,0
9496.0,1.43,0.0,1.87,0
9498.0,1.43,0.0,1.77,0
9500.0,1.43,0.0,1.74,0
9502.0,1.48,0.0,1.73,0
9504.0,1.51,0.0,1.75,0
9506.0,1.47,0.0,1.74,0
9508.0,1.45,0.0,1.74,0
9510.0,1.43,0.0,1.79,0
9512.0,1.4,0.0,1.79,0
9515.0,1.28,0.0,1.81,0
9517.0,1.26,0.0,1.8,0
9519.0,1.27,0.0,1.75,0
9521.0,1.3,0.0,1.73,0
9523.0,1.33,0.0,1.61,0
9525.0,1.38,0.0,1.43,0
9527.0,1.36,0.0,1.3,0
9529.0,1.35,0.0,1.27,0
9531.0,1.25,0.0,1.37,0
9533.0,1.16,0.0,1.37,0
9535.0,1.12,0.0,1.4,0
9537.0,1.14,0.0,1.31,0
9538.0,1.19,0.0,1.24,0
9540.0,1.21,0.0,1.21,0
9542.0,1.27,0.0,1.16,0
9544.0,1.38,0.0,1.25,0
9546.0,1.38,0.0,1.27,0
9548.0,1.41,0.0,1.22,0
9550.0,1.36,0.0,1.21,0
9552.0,1.35,0.0,1.14,0
9554.0,1.3,0.0,1.15,0
9556.0,1.27,0.0,1.09,0
9559.0,1.31,0.0,1.05,0
9561.0,1.36,0.0,1.08,0
9563.0,1.38,0.0,1.07,0
9565.0,1.43,0.0,1.02,0
9567.0,1.45,0.0,0.93,0
9569.0,1.45,0.0,0.95,0
9571.0,1.36,0.0,0.93,0
9573.0,1.29,0.0,0.85,0
9575.0,1.33,0.0,0.82,0
9577.0,1.33,0.0,0.73,0
9579.0,1.35,0.0,0.65,0
9581.0,1.41,0.0,0.64,0
9582.0,1.43,0.0,0.63,0
9584.0,1.41,0.0,0.56,0
9586.0,1.41,0.0,0.45,0
9588.0,1.41,0.0,0.33,0
9590.0,1.31,0.0,0.3,0
9592.0,1.31,0.0,0.26,0
9594.0,1.3,0.83,0.24,0
9596.0,1.21,2.11,0.21,0
9598.0,1.23,0.78,0.12,0
9601.0,1.34,0.0,0.06,0
9603.0,1.34,0.0,0.05,0
9605.0,1.37,0.0,0.05,0
9607.0,1.39,0.0,0.08,0
9609.0,1.36,0.0,0.23,0
9611.0,1.32,0.0,0.27,0
9613.0,1.29,0.24,0.3,0
9615.0,1.24,3.3,0.35,0
9617.0,1.22,3.3,0.3,0
9619.0,1.27,3.3,0.22,0
9621.0,1.35,1.52,0.1,0
9623.0,1.39,0.0,0.03,0
9624.0,1.43,0.0,0.0,0
9626.0,1.44,0.0,0.0,0
9628.0,1.43,0.0,0.0,0
9630.0,1.38,0.64,0.03,0
9632.0,1.39,3.3,0.07,0
9634.0,1.36,3.3,0.07,0
9636.0,1.26,3.3,0.06,0
9638.0,1.38,3.3,0.06,0
9640.0,1.55,3.3,0.06,0
9643.0,1.54,3.16,0.06,0
9645.0,1.6,0.0,0.04,0
9647.0,1.55,0.0,0.15,0
9649.0,1.44,0.96,0.2,0
9651.0,1.43,3.3,0.29,0
9653.0,1.39,3.3,0.35,0
9655.0,1.36,3.3,0.47,0
9657.0,1.38,3.3,0.58,0
9659.0,1.36,3.3,0.65,0
9661.0,1.45,3.3,0.71,0
9663.0,1.49,3.3,0.89,0
9665.0,1.48,3.3,1.09,0
9666.0,1.52,3.3,1.22,0
9668.0,1.55,3.3,1.33,0
9670.0,1.48,3.3,1.46,0
9672.0,1.46,3.3,1.56,0
9674.0,1.42,3.3,1.69,0
9676.0,1.43,3.3,1.75,0
9678.0,1.44,3.3,1.78,0
9680.0,1.48,3.3,1.81,0
9682.0,1.5,3.3,1.87,0
9684.0,1.52,3.3,1.9,0
9687.0,1.57,3.3,1.96,0
9689.0,1.55,3.3,2.01,0
9691.0,1.43,3.3,2.05,0
9693.0,1.39,3.3,2.07,0
9695.0,1.34,3.3,2.12,0
9697.0,1.33,3.3,2.16,0
9699.0,1.3,3.3,2.18,0
9701.0,1.36,3.3,2.21,0
9703.0,1.43,3.3,2.23,0
9705.0,1.54,3.3,2.23,0
9707.0,1.57,3.3,2.24,0
9709.0,1.55,3.3,2.24,0
9710.0,1.51,3.3,2.25,0
9712.0,1.53,3.3,2.26,0
9714.0,1.54,3.3,2.25,0
9716.0,1.53,3.3,2.16,0
9718.0,1.49,3.3,2.07,0
9720.0,1.49,3.3,2.03,0
9722.0,1.53,3.3,2.03,0
9724.0,1.57,3.3,2.05,0
9726.0,1.68,3.3,2.13,0
9729.0,1.71,3.3,2.14,0
9731.0,1.62,3.3,2.1,0
9733.0,1.55,3.3,2.0,0
9735.0,1.47,3.3,1.94,0
9737.0,1.43,3.3,1.85,0
9739.0,1.41,3.3,1.8,0
9741.0,1.49,3.3,1.76,0
9743.0,1.53,3.3,1.7,0
9745.0,1.53,3.3,1.6,0
9747.0,1.51,3.3,1.57,0
9749.0,1.51,3.3,1.54,0
9751.0,1.46,3.3,1.53,0
9752.0,1.49,3.3,1.5,0
9754.0,1.49,3.3,1.47,0
9756.0,1.46,3.3,1.42,0
9758.0,1.45,3.3,1.41,0
9760.0,1.48,3.3,1.42,0
9762.0,1.51,3.3,1.46,0
9764.0,1.59,3.3,1.51,0
9766.0,1.57,2.36,1.53,0
9768.0,1.52,3.3,1.57,0
9771.0,1.49,3.3,1.63,0
9773.0,1.51,3.3,1.64,0
9775.0,1.45,3.3,1.66,0
9777.0,1.41,3.3,1.64,0
9779.0,1.49,3.3,1.67,0
9781.0,1.59,3.3,1.68,0
9783.0,1.67,3.3,1.65,0
9785.0,1.68,1.8,1.55,0
9787.0,1.7,0.0,1.46,0
9789.0,1.67,0.49,1.37,0
9791.0,1.61,3.3,1.43,0
9793.0,1.55,3.3,1.54,0
9794.0,1.49,3.3,1.57,0
9796.0,1.47,3.3,1.51,0
9798.0,1.43,3.3,1.47,0
9800.0,1.45,3.3,1.42,0
9802.0,1.49,3.3,1.36,0
9804.0,1.54,0.0,1.21,0
9806.0,1.54,0.0,1.25,0
9808.0,1.43,0.0,1.27,0
9810.0,1.38,3.25,1.31,0
9812.0,1.34,3.3,1.31,0
9815.0,1.25,3.3,1.19,0
9817.0,1.21,3.3,1.11,0
9819.0,1.35,3.3,1.06,0
9821.0,1.36,3.3,1.08,0
9823.0,1.37,0.3,1.13,0
9825.0,1.37,0.0,1.27,0
9827.0,1.34,0.0,1.41,0
9829.0,1.31,0.0,1.43,0
9831.0,1.21,0.08,1.55,0
9833.0,1.13,2.95,1.7,0
9835.0,1.12,3.3,1.75,0
9837.0,1.05,3.3,1.75,0
9838.0,1.07,3.3,1.67,0
9840.0,1.12,0.0,1.52,0
9842.0,1.16,0.0,1.55,0
9844.0,1.24,0.0,1.54,0
9846.0,1.21,0.0,1.51,0
9848.0,1.22,0.0,1.51,0
9850.0,1.19,0.0,1.62,0
9852.0,1.16,0.0,1.58,0
9854.0,1.13,3.3,1.64,0
9857.0,1.16,3.3,1.88,0
9859.0,1.1,1.79,2.07,0
9861.0,1.1,0.0,2.05,0
9863.0,1.12,0.0,2.15,0
9865.0,1.21,0.0,2.5,0
9867.0,1.21,0.0,2.55,0
9869.0,1.25,0.0,2.56,0
9871.0,1.27,0.0,2.52,0
9873.0,1.19,0.0,2.44,0
9875.0,1.09,0.0,2.52,0
9877.0,1.04,0.0,2.6,0
9879.0,1.04,0.0,2.8,0
9880.0,1.09,0.0,3.05,0
9882.0,1.14,0.0,3.24,0
9884.0,1.2,0.0,3.24,0
9886.0,1.18,0.0,3.24,0
9888.0,1.2,0.0,3.24,0
9890.0,1.21,0.0,3.24,0
9892.0,1.2,0.0,3.25,0
9894.0,1.2,0.0,3.24,0
9896.0,1.2,0.0,3.24,0
9899.0,1.22,0.0,3.24,0
9901.0,1.21,0.0,3.24,0
9903.0,1.25,0.0,3.25,0
9905.0,1.29,0.0,3.25,0
9907.0,1.32,0.0,3.24,0
9909.0,1.32,0.0,3.25,0
9911.0,1.26,0.0,3.23,0
9913.0,1.16,0.0,3.24,0
9915.0,1.11,0.0,3.24,0
9917.0,1.18,0.0,3.24,0
9919.0,1.2,0.0,3.22,0
9921.0,1.26,0.0,3.17,0
9922.0,1.35,0.0,3.08,0
9924.0,1.36,0.0,2.98,0
9926.0,1.29,0.0,2.88,0
9928.0,1.28,0.0,2.85,0
9930.0,1.34,0.0,2.86,0
9932.0,1.25,0.0,2.83,0
9934.0,1.19,0.0,2.8,0
9936.0,1.2,0.0,2.73,0
9938.0,1.2,0.0,2.62,0
9940.0,1.25,0.0,2.37,0
9943.0,1.28,0.0,2.16,0
9945.0,1.35,0.0,2.01,0
9947.0,1.35,0.0,1.93,0
9949.0,1.33,0.0,1.78,0
9951.0,1.3,0.0,1.65,0
9953.0,1.26,0.0,1.65,0
9955.0,1.15,0.0,1.6,0
9957.0,1.12,0.0,1.4,0
9959.0,1.15,0.0,1.23,0
9961.0,1.18,0.0,1.22,0
9963.0,1.35,0.0,1.18,0
9965.0,1.37,0.0,1.09,0
9966.0,1.31,0.0,0.98,0
9968.0,1.24,0.0,0.76,0
9970.0,1.15,0.0,0.67,0
9972.0,1.14,0.0,0.52,0
9974.0,1.11,0.0,0.15,0
9976.0,1.09,3.3,0.25,0
9978.0,1.08,3.24,0.26,0
9980.0,1.15,0.0,0.27,0
9982.0,1.22,0.0,0.3,0
9985.0,1.26,0.0,0.3,0
9987.0,1.27,0.0,0.35,0
9989.0,1.25,0.0,0.35,0
9991.0,1.11,0.0,0.45,0
9993.0,1.0,0.0,0.55,0
9995.0,1.06,3.3,0.75,0
9997.0,1.15,3.3,0.8,0
9999.0,1.15,3.3,0.86,0
10001.0,1.17,2.77,0.9,0
10003.0,1.23,0.0,0.83,0
10005.0,1.29,0.0,0.75,0
10007.0,1.4,0.0,0.84,0
10008.0,1.4,0.0,0.84,0
10010.0,1.38,0.0,0.46,0
10012.0,1.42,0.11,0.22,0
10014.0,1.46,3.3,0.25,0
10016.0,1.44,3.3,0.59,0
10018.0,1.45,3.3,0.48,0
10020.0,1.57,3.3,0.29,0
10022.0,1.6,0.0,0.16,0
10024.0,1.73,0.0,0.0,0
10027.0,1.89,0.0,0.0,0
10029.0,1.95,0.0,0.14,0
10031.0,1.88,0.0,0.35,0
10033.0,1.74,0.85,0.43,0
10035.0,1.65,3.3,0.53,0
10037.0,1.6,3.3,0.65,0
10039.0,1.6,3.3,0.72,0
10041.0,1.6,1.78,0.68,0
10043.0,1.53,0.0,0.66,0
10045.0,1.59,0.0,0.64,0
10047.0,1.59,0.0,0.63,0
10049.0,1.5,0.0,0.64,0
10051.0,1.4,0.0,0.69,0
10053.0,1.32,0.0,0.74,0
10054.0,1.29,3.3,0.9,0
10056.0,1.31,3.3,0.97,0
10058.0,1.39,3.3,1.05,0
10060.0,1.42,0.0,1.03,0
10062.0,1.5,0.0,1.04,0
10064.0,1.61,0.0,1.05,0
10066.0,1.53,0.0,1.14,0
10068.0,1.5,0.0,1.18,0
10071.0,1.45,0.0,1.28,0
10073.0,1.35,0.0,1.42,0
10075.0,1.22,3.3,1.7,0
10077.0,1.25,3.3,1.82,0
10079.0,1.25,3.3,1.9,0
10081.0,1.27,0.99,1.91,0
10083.0,1.38,0.0,2.0,0
10085.0,1.49,0.0,2.03,0
10087.0,1.45,0.0,2.11,0
10089.0,1.44,0.0,2.21,0
10091.0,1.3,0.0,2.25,0
10093.0,1.02,3.3,2.36,0
10095.0,0.96,3.3,2.39,0
10097.0,0.98,3.3,2.35,0
10098.0,1.04,3.3,2.35,0
10100.0,1.27,3.3,2.44,0
10102.0,1.42,2.49,2.66,0
10104.0,1.42,0.0,2.67,0
10106.0,1.48,0.0,2.68,0
10108.0,1.58,0.0,2.65,0
10110.0,1.62,3.3,2.68,0
10113.0,1.6,3.3,2.61,0
10115.0,1.53,3.3,2.55,0
10117.0,1.65,3.3,2.49,0
10119.0,1.75,3.3,2.41,0
10121.0,1.85,3.3,2.31,0
10123.0,1.95,3.3,2.29,0
10125.0,2.05,0.0,2.22,0
10127.0,2.15,0.0,2.3,0
10129.0,2.17,0.0,2.35,0
10131.0,2.12,3.3,2.41,0
10133.0,2.09,3.3,2.33,0
10135.0,2.01,3.3,2.28,0
10137.0,1.85,3.3,2.21,0
10139.0,1.8,3.3,2.16,0
10140.0,1.77,3.3,2.15,0
10142.0,1.87,3.3,2.16,0
10144.0,2.11,0.0,2.3,0
10146.0,2.31,0.0,2.56,0
10148.0,2.37,0.0,3.13,0
10150.0,2.38,3.3,3.3,0
10152.0,2.44,3.3,3.3,0
10155.0,2.61,3.3,3.3,0
10157.0,2.7,3.3,3.3,0
10159.0,2.8,3.3,3.3,0
10161.0,3.07,3.3,3.3,0
10163.0,3.14,3.3,3.3,0
10165.0,3.16,0.0,3.23,0
10167.0,3.16,0.0,3.24,0
10169.0,3.19,0.0,3.24,0
10171.0,3.3,3.3,3.3,0
10173.0,3.3,3.3,3.3,0
10175.0,3.3,3.3,3.3,0
10177.0,3.3,3.3,3.3,0
10179.0,3.3,3.3,3.23,0
10181.0,3.21,3.3,2.99,0
10183.0,2.78,3.3,3.0,0
10184.0,2.58,0.0,2.72,0
10186.0,2.58,0.0,2.6,0
10188.0,2.44,0.0,2.71,0
10190.0,2.29,0.88,2.7,0
10192.0,2.19,3.3,3.3,0
10194.0,2.09,3.3,3.3,0
10196.0,1.89,3.3,3.3,0
10199.0,1.63,3.3,3.3,0
10201.0,1.48,3.3,3.3,0
10203.0,1.46,0.0,3.24,0
10205.0,1.49,0.0,3.24,0
10207.0,1.58,0.0,3.24,0
10209.0,1.71,0.0,3.24,0
10211.0,1.78,0.0,3.23,0
10213.0,1.69,0.68,3.25,0
10215.0,1.57,3.3,3.3,0
10217.0,1.65,3.3,3.3,0
10219.0,1.76,3.3,3.3,0
10221.0,1.79,0.0,3.24,0
10223.0,1.84,0.0,3.24,0
10225.0,1.94,0.0,3.24,0
10227.0,1.99,0.0,3.24,0
10228.0,1.94,0.0,3.25,0
10230.0,1.75,0.0,3.24,0
10232.0,1.7,0.48,3.25,0
10234.0,1.68,3.3,3.3,0
10236.0,1.67,3.3,3.3,0
10238.0,1.72,3.3,3.3,0
10241.0,1.73,0.0,3.24,0
10243.0,1.88,0.0,3.11,0
10245.0,2.07,0.0,2.98,0
10247.0,2.15,0.0,2.75,0
10249.0,2.18,0.0,2.57,0
10251.0,2.12,0.0,2.33,0
10253.0,2.05,0.76,2.12,0
10255.0,2.05,3.3,1.98,0
10257.0,2.04,3.3,1.77,0
10259.0,2.03,3.3,1.48,0
10261.0,2.0,0.0,1.05,0
10263.0,1.96,0.0,0.72,0
10265.0,1.95,0.0,0.0,0
10267.0,1.95,0.0,0.0,0
10269.0,1.97,0.0,0.0,0
10270.0,1.92,0.0,0.0,0
10272.0,1.87,3.3,0.05,0
10274.0,1.74,3.3,0.05,0
10276.0,1.67,3.3,0.05,0
10278.0,1.81,3.3,0.05,0
10280.0,1.75,0.24,0.0,0
10283.0,1.54,0.0,0.0,0
10285.0,1.35,0.0,0.0,0
10287.0,1.18,0.0,0.0,0
10289.0,1.14,0.0,0.0,0
10291.0,1.08,0.0,0.0,0
10293.0,1.09,3.06,0.05,0
10295.0,1.21,3.3,0.05,0
10297.0,1.24,3.3,0.06,0
10299.0,1.35,3.3,0.05,0
10301.0,1.5,0.79,0.0,0
10303.0,1.49,0.0,0.0,0
10305.0,1.53,0.0,0.0,0
10307.0,1.48,0.0,0.0,0
10309.0,1.42,0.0,0.0,0
10311.0,1.33,0.0,0.0,0
10313.0,1.26,1.35,0.02,0
10314.0,1.08,3.3,0.06,0
10316.0,0.93,3.3,0.05,0
10318.0,0.89,3.3,0.05,0
10320.0,0.82,0.0,0.0,0
10322.0,0.84,0.0,0.0,0
10324.0,0.94,0.0,0.0,0
10327.0,0.9,0.0,0.0,0
10329.0,0.7,0.0,0.0,0
10331.0,0.61,0.0,0.0,0
10333.0,0.54,0.25,0.0,0
10335.0,0.54,3.3,0.06,0
10337.0,0.54,3.3,0.05,0
10339.0,0.56,3.3,0.05,0
10341.0,0.51,0.0,0.0,0
10343.0,0.52,0.0,0.0,0
10345.0,0.67,0.0,0.0,0
10347.0,0.89,0.0,0.0,0
10349.0,1.13,0.0,0.0,0
10351.0,1.21,0.0,0.0,0
10353.0,1.07,0.72,0.11,0
10355.0,0.84,3.3,0.32,0
10356.0,0.73,3.3,0.52,0
10358.0,0.8,3.3,0.83,0
10360.0,0.8,0.0,1.02,0
10362.0,0.84,0.0,1.18,0
10364.0,0.91,0.0,1.29,0
10366.0,0.98,0.0,1.33,0
10369.0,1.07,0.0,1.42,0
10371.0,1.03,0.0,1.23,0
10373.0,1.01,0.0,1.1,0
10375.0,0.94,0.0,1.13,0
10377.0,0.84,0.0,1.15,0
10379.0,0.85,0.0,1.24,0
10381.0,0.79,0.0,1.28,0
10383.0,0.7,0.0,1.35,0
10385.0,0.85,0.0,1.44,0
10387.0,0.98,0.0,1.55,0
10389.0,0.97,0.0,1.62,0
10391.0,1.0,0.0,1.56,0
10393.0,0.97,3.3,1.57,0
10395.0,1.02,2.51,1.43,0
10397.0,1.19,0.0,1.28,0
10398.0,1.4,0.0,1.21,0
10400.0,1.67,0.0,1.23,0
10402.0,1.41,0.0,1.19,0
10404.0,0.68,0.0,1.25,0
10406.0,0.29,0.0,1.29,0
10408.0,0.0,0.0,1.32,0
10411.0,0.0,3.3,1.43,0
10413.0,0.0,3.3,1.58,0
10415.0,0.0,3.3,1.7,0
10417.0,0.05,3.3,1.82,0
10419.0,0.36,3.3,1.93,0
10421.0,0.34,3.3,2.08,0
10423.0,0.24,3.3,1.93,0
10425.0,0.06,0.99,1.72,0
10427.0,0.12,0.0,1.67,0
10429.0,0.29,0.79,1.66,0
10431.0,0.26,3.3,1.73,0
10433.0,0.25,3.3,1.77,0
10435.0,0.01,3.3,1.83,0
10437.0,0.01,3.3,1.85,0
10439.0,0.17,3.3,1.81,0
10441.0,0.45,3.3,1.75,0
10442.0,0.59,0.0,1.68,0
10444.0,0.76,0.0,1.72,0
10446.0,0.81,0.0,1.8,0
10448.0,1.03,0.0,1.86,0
10450.0,1.1,0.0,1.87,0
10452.0,1.23,3.3,2.07,0
10455.0,1.11,3.3,2.0,0
10457.0,1.36,3.3,1.81,0
10459.0,1.25,3.3,1.77,0
10461.0,1.05,3.24,1.62,0
10463.0,1.18,0.0,1.48,0
10465.0,1.03,0.0,1.45,0
10467.0,0.87,0.0,1.52,0
10469.0,0.95,0.0,1.6,0
10471.0,0.94,0.22,1.61,0
10473.0,0.99,3.3,1.63,0
10475.0,1.06,3.3,1.52,0
10477.0,1.18,3.3,1.25,0
10479.0,1.08,3.3,0.94,0
10481.0,1.22,2.44,0.78,0
10483.0,1.38,0.0,0.77,0
10485.0,1.45,0.0,0.73,0
10487.0,1.56,0.0,0.79,0
10488.0,1.41,0.0,0.7,0
10490.0,1.49,0.0,0.67,0
10492.0,1.55,3.3,0.71,0
10494.0,1.56,3.3,0.75,0
10497.0,1.48,3.3,0.83,0
10499.0,1.32,3.3,0.93,0
