time,ch1,ch2,ch3,button
1.0,3.3,3.3,3.3,0
3.0,3.3,3.3,3.3,0
5.0,3.3,3.3,3.3,0
7.0,3.3,3.3,3.3,0
9.0,3.3,3.3,3.3,0
11.0,3.3,3.3,3.3,0
13.0,3.3,3.3,3.3,0
15.0,3.3,3.3,3.3,0
17.0,3.3,3.3,3.3,0
19.0,3.3,3.3,3.3,0
21.0,3.3,3.3,3.3,0
23.0,3.3,3.3,3.3,0
25.0,3.3,3.3,3.3,0
27.0,3.3,3.3,3.3,0
29.0,3.3,3.3,3.3,0
31.0,3.3,3.3,3.3,0
33.0,3.3,3.3,3.3,0
35.0,3.3,3.3,3.3,0
37.0,3.3,3.3,3.3,0
39.0,3.3,3.3,3.3,0
41.0,3.3,3.3,3.3,0
43.0,3.3,3.3,3.3,0
45.0,3.3,3.3,3.3,0
47.0,3.3,3.3,3.3,0
49.0,3.3,3.3,3.3,0
51.0,3.3,3.3,3.3,0
53.0,3.3,3.3,3.3,0
55.0,3.3,3.3,3.3,0
57.0,3.3,3.3,3.3,0
59.0,3.3,3.3,3.3,0
61.0,3.3,3.3,3.3,0
63.0,3.3,3.3,3.3,0
65.0,3.3,3.3,3.3,0
67.0,3.3,3.3,3.3,0
69.0,3.3,3.3,3.3,0
71.0,3.3,3.3,3.3,0
73.0,3.3,3.3,3.3,0
75.0,3.3,3.3,3.3,0
77.0,3.3,3.3,3.3,0
79.0,3.3,3.3,3.3,0
81.0,3.3,3.3,3.3,0
83.0,3.3,3.3,3.3,0
86.0,3.3,3.3,3.3,0
87.0,3.3,3.3,3.3,0
89.0,3.3,3.3,3.3,0
91.0,3.3,3.3,3.3,0
93.0,3.3,3.3,3.3,0
95.0,3.3,3.3,3.3,0
97.0,3.3,3.3,3.3,0
99.0,3.3,3.3,3.3,0
101.0,3.3,3.3,3.3,0
103.0,3.3,3.3,3.3,0
105.0,3.3,3.3,3.3,0
107.0,3.3,3.3,3.3,0
109.0,3.3,3.3,3.3,0
111.0,3.3,3.3,3.3,0
113.0,3.3,3.3,3.3,0
115.0,3.3,3.3,3.3,0
117.0,3.3,3.3,3.3,0
119.0,3.3,3.3,3.3,0
121.0,3.3,3.3,3.3,0
123.0,3.3,3.3,3.3,0
125.0,3.3,3.3,3.3,0
128.0,3.3,3.3,3.3,0
130.0,3.3,3.3,3.3,0
132.0,3.3,3.3,3.3,0
133.0,3.3,3.3,3.3,0
135.0,3.3,3.3,3.3,0
137.0,3.3,3.3,3.3,0
139.0,3.3,3.3,3.3,0
141.0,3.3,3.3,3.3,0
143.0,3.3,3.3,3.3,0
145.0,3.3,3.3,3.3,0
147.0,3.3,3.3,3.3,0
149.0,3.3,3.3,3.3,0
151.0,3.3,3.3,3.3,0
153.0,3.3,3.3,3.3,0
155.0,3.3,3.3,3.3,0
157.0,3.3,3.3,3.3,0
159.0,3.3,3.3,3.3,0
161.0,3.3,3.3,3.3,0
163.0,3.3,3.3,3.3,0
165.0,3.3,3.3,3.3,0
167.0,3.3,3.3,3.3,0
169.0,3.3,3.3,3.3,0
172.0,3.3,3.3,3.3,0
174.0,3.3,3.3,3.3,0
176.0,3.3,3.3,3.3,0
178.0,3.3,3.3,3.3,0
179.0,3.3,3.3,3.3,0
181.0,3.3,3.3,3.3,0
183.0,3.3,3.3,3.3,0
185.0,3.3,3.3,3.3,0
187.0,3.3,3.3,3.3,0
189.0,3.3,3.3,3.3,0
191.0,3.3,3.3,3.3,0
193.0,3.3,3.3,3.3,0
195.0,3.3,3.3,3.3,0
197.0,3.3,3.3,3.3,0
199.0,3.3,3.3,3.3,0
201.0,3.3,3.3,3.3,0
203.0,3.3,3.3,3.3,0
205.0,3.3,3.3,3.3,0
207.0,3.3,3.3,3.3,0
209.0,3.3,3.3,3.3,0
211.0,3.3,3.3,3.3,0
214.0,3.3,3.3,3.3,0
216.0,3.3,3.3,3.3,0
218.0,3.3,3.3,3.3,0
220.0,3.3,3.3,3.3,0
222.0,3.3,3.3,3.3,0
224.0,3.3,3.3,3.3,0
225.0,3.3,3.3,3.3,0
227.0,3.3,0.0,3.3,0
229.0,3.3,0.0,3.3,0
231.0,3.3,0.0,3.3,0
233.0,3.3,0.0,3.3,0
235.0,3.3,3.3,3.3,0
237.0,3.3,3.3,3.3,0
239.0,3.3,3.3,3.3,0
241.0,3.3,3.3,3.3,0
243.0,3.3,3.3,3.3,0
245.0,3.3,3.3,3.3,0
247.0,3.3,3.3,3.3,0
249.0,3.3,3.3,3.3,0
251.0,3.3,3.3,3.3,0
253.0,3.3,3.3,3.3,0
256.0,3.3,3.3,3.3,0
258.0,3.3,3.3,3.3,0
260.0,3.3,3.3,3.3,0
262.0,3.3,3.3,3.3,0
264.0,3.3,3.3,3.3,0
266.0,3.3,3.3,3.3,0
268.0,3.3,3.3,3.3,0
270.0,3.3,3.3,3.3,0
271.0,3.3,3.3,3.3,0
273.0,3.3,3.3,3.3,0
275.0,3.3,3.3,3.3,0
277.0,3.3,3.3,3.3,0
279.0,3.3,3.3,3.3,0
281.0,3.3,3.3,3.3,0
283.0,3.3,3.3,3.3,0
285.0,3.3,3.3,3.3,0
287.0,3.3,3.3,3.3,0
289.0,3.3,3.3,3.3,0
291.0,3.3,3.3,3.3,0
293.0,3.3,3.3,3.3,0
295.0,3.3,3.3,3.3,0
297.0,3.3,3.3,3.3,0
300.0,3.3,3.3,3.3,0
302.0,3.3,3.3,3.3,0
304.0,3.3,3.28,3.3,0
306.0,3.3,3.18,3.3,0
308.0,3.3,3.1,3.3,0
310.0,3.3,3.02,3.3,0
312.0,3.3,2.95,2.88,0
314.0,3.3,2.9,0.76,0
316.0,3.3,2.85,0.0,0
317.0,3.3,2.8,0.0,0
319.0,3.3,2.75,0.0,0
321.0,3.3,2.71,0.0,0
323.0,3.3,2.67,0.0,0
325.0,3.3,2.64,0.0,0
327.0,3.3,2.6,0.0,0
329.0,3.3,2.57,0.0,0
331.0,3.3,2.55,0.0,0
333.0,3.3,2.54,0.0,0
335.0,3.3,2.53,0.0,0
337.0,3.3,2.5,0.0,0
339.0,3.3,2.5,0.0,0
342.0,3.3,2.48,0.0,0
344.0,3.3,2.48,0.0,0
346.0,3.3,2.47,0.0,0
348.0,3.3,2.46,0.0,0
350.0,3.3,2.46,0.0,0
352.0,3.3,2.46,0.0,0
354.0,3.3,2.47,0.0,0
356.0,3.3,2.47,0.0,0
358.0,3.3,2.47,0.0,0
360.0,3.3,2.48,0.0,0
362.0,3.3,2.49,0.0,0
364.0,3.3,2.49,0.0,0
366.0,3.3,2.48,0.02,0
367.0,3.3,2.49,0.29,0
369.0,3.3,2.5,0.58,0
371.0,3.3,2.51,0.86,0
373.0,3.3,2.53,1.13,0
375.0,3.3,2.53,1.36,0
377.0,3.3,2.54,1.59,0
379.0,3.3,2.56,1.79,0
381.0,3.3,2.56,1.98,0
384.0,3.3,2.57,2.15,0
386.0,3.3,2.58,2.31,0
388.0,3.3,2.59,2.46,0
390.0,3.3,2.6,2.61,0
392.0,3.3,2.62,2.74,0
394.0,3.3,2.63,2.86,0
396.0,3.3,2.65,2.97,0
398.0,3.3,2.65,3.07,0
400.0,3.3,2.66,3.16,0
402.0,3.3,2.68,3.25,0
404.0,3.3,2.69,3.3,0
406.0,3.3,2.7,3.3,0
408.0,3.3,2.71,3.3,0
410.0,3.3,2.72,3.3,0
412.0,3.3,2.73,3.3,0
413.0,3.3,2.75,3.3,0
415.0,3.3,2.76,3.3,0
417.0,3.3,2.77,3.3,0
419.0,3.3,2.78,3.3,0
421.0,3.3,2.79,3.3,0
423.0,3.3,2.8,3.3,0
425.0,3.3,2.81,3.3,0
428.0,3.3,2.82,3.3,0
430.0,3.3,2.83,3.3,0
432.0,3.3,2.85,3.3,0
434.0,3.3,2.85,3.3,0
436.0,3.3,2.88,3.3,0
438.0,3.3,2.89,3.3,0
440.0,3.3,2.89,3.3,0
442.0,3.3,2.9,3.3,0
444.0,3.3,2.9,3.3,0
446.0,3.3,2.92,3.3,0
448.0,3.3,2.92,3.3,0
450.0,3.3,2.94,3.3,0
452.0,3.3,2.94,3.3,0
454.0,3.3,2.96,3.3,0
455.0,3.3,2.97,3.3,0
457.0,3.3,2.99,3.3,0
459.0,3.3,2.99,3.3,0
461.0,3.3,2.99,3.3,0
463.0,3.3,3.0,3.3,0
465.0,3.3,3.01,3.3,0
467.0,3.3,3.01,3.3,0
470.0,3.3,3.03,3.3,0
472.0,3.3,3.04,3.3,0
474.0,3.3,3.05,3.3,0
476.0,3.3,3.06,3.3,0
478.0,3.3,3.05,3.3,0
480.0,3.3,3.06,3.3,0
482.0,3.3,3.07,3.3,0
484.0,3.3,3.07,3.3,0
486.0,3.3,3.08,3.3,0
488.0,3.3,3.09,3.3,0
490.0,3.3,3.09,3.3,0
492.0,3.3,3.11,3.3,0
494.0,3.3,3.12,3.3,0
496.0,3.3,3.13,3.3,0
498.0,3.3,3.14,3.3,0
500.0,3.3,3.14,3.3,0
502.0,3.3,3.13,3.3,0
503.0,3.3,3.14,3.3,0
505.0,3.3,3.14,3.3,0
507.0,3.3,3.14,3.3,0
509.0,3.3,3.15,3.3,0
512.0,3.3,3.16,3.3,0
514.0,3.3,3.17,3.3,0
516.0,3.3,3.18,3.3,0
518.0,3.3,3.18,3.3,0
520.0,3.3,3.18,3.3,0
522.0,3.3,3.18,3.3,0
524.0,3.3,3.19,3.3,0
526.0,3.3,3.19,3.3,0
528.0,3.3,3.19,3.3,0
530.0,3.3,3.2,3.3,0
532.0,3.3,3.21,3.3,0
534.0,3.3,3.22,3.3,0
536.0,3.3,3.23,3.3,0
538.0,3.3,3.23,3.3,0
540.0,3.3,3.23,3.3,0
542.0,3.3,3.23,3.3,0
544.0,3.3,3.23,3.3,0
546.0,3.3,3.23,3.3,0
548.0,3.3,3.23,3.3,0
549.0,3.3,3.25,3.3,0
551.0,3.3,3.25,3.3,0
553.0,3.3,3.26,3.3,0
556.0,3.3,3.26,3.3,0
558.0,3.3,3.26,3.3,0
560.0,3.3,3.27,3.3,0
562.0,3.3,3.26,3.3,0
564.0,3.3,3.26,3.3,0
566.0,3.3,3.26,3.3,0
568.0,3.3,3.27,3.3,0
570.0,3.3,3.27,3.3,0
572.0,3.3,3.28,3.3,0
574.0,3.3,3.29,3.3,0
576.0,3.3,3.29,3.3,0
578.0,3.3,3.29,3.3,0
580.0,3.3,3.29,3.3,0
582.0,3.3,3.29,3.3,0
584.0,3.3,3.29,3.3,0
586.0,3.3,3.28,3.3,0
588.0,3.3,3.29,3.3,0
590.0,3.3,3.3,3.3,0
592.0,3.3,3.3,3.3,0
593.0,3.3,3.3,3.3,0
595.0,3.3,3.3,3.3,0
598.0,3.3,3.3,3.3,0
600.0,3.3,3.3,3.3,0
602.0,3.3,3.3,3.3,0
604.0,3.3,3.3,3.3,0
606.0,3.3,3.3,3.3,0
608.0,3.3,3.3,3.3,0
610.0,3.3,3.3,3.3,0
612.0,3.3,3.3,3.3,0
614.0,3.3,3.3,3.3,0
616.0,3.3,3.3,3.3,0
618.0,3.3,3.3,3.3,0
620.0,3.3,3.3,3.3,0
622.0,3.3,3.3,3.3,0
624.0,3.3,3.3,3.3,0
626.0,3.3,3.3,3.3,0
628.0,3.3,3.3,3.3,0
630.0,3.3,3.3,3.3,0
632.0,3.3,3.3,3.3,0
634.0,3.3,3.3,3.3,0
635.0,3.3,3.3,3.3,0
637.0,3.3,3.3,3.3,0
640.0,3.3,3.3,3.3,0
642.0,3.3,3.3,3.3,0
644.0,3.3,3.3,3.3,0
646.0,3.3,3.3,3.3,0
648.0,3.3,3.3,3.3,0
650.0,3.3,3.3,3.3,0
652.0,3.3,3.3,3.3,0
654.0,3.3,3.3,3.3,0
656.0,3.3,3.3,3.3,0
658.0,3.3,3.3,3.3,0
660.0,3.3,3.3,3.3,0
662.0,3.3,3.3,3.3,0
664.0,3.3,3.3,3.3,0
666.0,3.3,3.3,3.3,0
668.0,3.3,3.3,3.3,0
670.0,3.3,3.3,3.3,0
672.0,3.3,3.3,3.3,0
674.0,3.3,3.3,3.3,0
676.0,3.3,3.3,3.3,0
678.0,3.3,3.3,3.3,0
680.0,3.3,3.3,3.3,0
683.0,3.3,3.3,3.3,0
684.0,3.3,3.3,3.3,0
686.0,3.3,3.3,3.3,0
688.0,3.3,3.3,3.3,0
690.0,3.3,3.3,3.3,0
692.0,3.3,3.3,3.3,0
694.0,3.3,3.3,3.3,0
696.0,3.3,3.3,3.3,0
698.0,3.3,3.3,3.3,0
700.0,3.3,3.3,3.3,0
702.0,3.3,3.3,3.3,0
704.0,3.3,3.3,3.3,0
706.0,3.3,3.3,3.3,0
708.0,3.3,3.3,3.3,0
710.0,3.3,3.3,3.3,0
712.0,3.3,3.3,3.3,0
714.0,3.3,3.3,3.3,0
716.0,3.3,3.3,3.3,0
718.0,3.3,3.3,3.3,0
720.0,3.3,3.3,3.3,0
722.0,3.3,3.3,3.3,0
724.0,3.3,3.3,3.3,0
727.0,3.3,3.3,3.3,0
729.0,3.3,3.3,3.3,0
731.0,3.3,3.3,3.3,0
733.0,3.3,3.3,3.3,0
734.0,3.3,3.3,3.3,0
736.0,3.3,3.3,3.3,0
738.0,3.3,3.3,3.3,0
740.0,3.3,3.3,3.3,0
742.0,3.3,3.3,3.3,0
744.0,3.3,3.3,3.3,0
746.0,3.3,3.3,3.3,0
748.0,3.3,3.3,3.3,0
750.0,3.3,3.3,3.3,0
752.0,3.3,3.3,3.3,0
754.0,3.3,3.3,3.3,0
756.0,3.3,3.3,3.3,0
758.0,3.3,3.3,3.3,0
760.0,3.3,3.3,3.3,0
762.0,3.3,3.3,3.3,0
764.0,3.3,3.3,3.3,0
766.0,3.3,3.3,3.3,0
769.0,3.3,3.3,3.3,0
771.0,3.3,3.3,3.3,0
773.0,3.3,3.3,3.3,0
775.0,3.3,3.3,3.3,0
777.0,3.3,3.3,3.3,0
778.0,3.3,3.3,3.3,0
780.0,3.3,3.3,3.3,0
782.0,3.3,3.3,3.3,0
784.0,3.3,3.3,3.3,0
786.0,3.3,3.3,3.3,0
788.0,3.3,3.3,3.3,0
790.0,3.3,3.3,3.3,0
792.0,3.3,3.3,3.3,0
794.0,3.3,3.3,3.3,0
796.0,3.3,3.3,3.3,0
798.0,3.3,3.3,3.3,0
800.0,3.3,3.3,3.3,0
802.0,3.3,3.3,3.3,0
804.0,3.3,3.3,3.3,0
806.0,3.3,3.3,3.3,0
808.0,3.3,3.3,3.3,0
811.0,3.3,3.3,3.3,0
813.0,3.3,3.3,3.3,0
815.0,3.3,3.3,3.3,0
817.0,3.3,3.3,3.3,0
819.0,3.3,3.3,3.3,0
821.0,3.3,3.3,3.3,0
822.0,3.3,3.3,3.3,0
824.0,3.3,3.3,3.3,0
826.0,3.3,3.3,3.3,0
828.0,3.3,3.3,3.3,0
830.0,3.3,3.3,3.3,0
832.0,3.3,3.3,3.3,0
834.0,3.3,3.3,3.3,0
836.0,3.3,3.3,3.3,0
838.0,3.3,3.3,3.3,0
840.0,3.3,3.3,3.3,0
842.0,3.3,3.3,3.3,0
844.0,3.3,3.3,3.3,0
846.0,3.3,3.3,3.3,0
848.0,3.3,3.3,3.3,0
850.0,3.3,3.3,3.3,0
852.0,3.3,3.3,3.3,0
855.0,3.3,3.3,3.3,0
857.0,3.3,3.3,3.3,0
859.0,3.3,3.3,3.3,0
861.0,3.3,3.3,3.3,0
863.0,3.3,3.3,3.3,0
865.0,3.3,3.3,3.3,0
867.0,3.3,3.3,3.3,0
869.0,3.3,3.3,3.3,0
870.0,3.3,3.3,3.3,0
872.0,3.3,3.3,3.3,0
874.0,3.3,3.3,3.3,0
876.0,3.3,3.3,3.3,0
878.0,3.3,3.3,3.3,0
880.0,3.3,3.3,3.3,0
882.0,3.3,3.3,3.3,0
884.0,3.3,3.3,3.3,0
886.0,3.3,3.3,3.3,0
888.0,3.3,3.3,3.3,0
890.0,3.3,3.3,3.3,0
892.0,3.3,3.3,3.3,0
894.0,3.3,3.3,3.3,0
897.0,3.3,3.3,3.3,0
899.0,3.3,3.3,3.3,0
901.0,3.3,3.3,3.3,0
903.0,3.3,3.3,3.3,0
905.0,3.3,3.3,3.3,0
907.0,3.3,3.3,3.3,0
909.0,3.3,3.3,3.3,0
911.0,3.3,3.3,3.3,0
913.0,3.3,3.3,3.3,0
915.0,3.3,3.3,3.3,0
916.0,3.3,3.3,3.3,0
918.0,3.3,3.3,3.3,0
920.0,3.3,3.3,3.3,0
922.0,3.3,3.3,3.3,0
924.0,3.3,3.3,3.3,0
926.0,3.3,3.3,3.3,0
928.0,3.3,3.3,3.3,0
930.0,3.3,3.3,3.3,0
932.0,3.3,3.3,3.3,0
934.0,3.3,3.3,3.3,0
936.0,3.3,3.3,3.3,0
939.0,3.3,3.3,3.3,0
941.0,3.3,3.3,3.3,0
943.0,3.3,3.3,3.3,0
945.0,3.3,3.3,3.3,0
947.0,3.3,3.3,3.3,0
949.0,3.3,3.3,3.3,0
951.0,3.3,3.3,3.3,0
953.0,3.3,3.3,3.3,0
955.0,3.3,3.3,3.3,0
957.0,3.3,3.3,3.3,0
959.0,3.3,3.3,3.3,0
960.0,3.3,3.3,3.3,0
962.0,3.3,3.3,3.3,0
964.0,3.3,3.3,3.3,0
966.0,3.3,3.3,3.3,0
968.0,3.3,3.3,3.3,0
970.0,3.3,3.3,3.3,0
972.0,3.3,3.3,3.3,0
974.0,3.3,3.3,3.3,0
976.0,3.3,3.3,3.3,0
978.0,3.3,3.3,3.3,0
980.0,3.3,3.3,3.3,0
983.0,3.3,3.3,3.3,0
985.0,3.3,3.3,3.3,0
987.0,3.3,3.3,3.3,0
989.0,3.3,3.3,3.3,0
991.0,3.3,3.3,3.3,0
993.0,3.3,3.3,3.3,0
995.0,3.3,3.3,3.3,0
997.0,3.3,3.3,3.3,0
999.0,3.3,3.3,3.3,0
1001.0,3.3,3.3,3.3,0
1003.0,3.3,3.3,3.3,0
1005.0,3.3,3.3,3.3,0
1006.0,3.3,3.3,3.3,0
1008.0,3.3,3.3,3.3,0
1010.0,3.3,3.3,3.3,0
1012.0,3.3,3.3,3.3,0
1014.0,3.3,3.3,3.3,0
1016.0,3.3,3.3,3.3,0
1018.0,3.3,3.3,3.3,0
1020.0,3.3,3.3,3.3,0
1022.0,3.3,3.3,3.3,0
1025.0,3.3,3.3,3.3,0
1027.0,3.3,3.3,3.3,0
1029.0,3.3,3.3,3.3,0
1031.0,3.3,3.3,3.3,0
1033.0,3.3,3.3,3.3,0
1035.0,3.3,3.3,3.3,0
1037.0,3.3,3.3,3.3,0
1039.0,3.3,3.3,3.3,0
1041.0,3.3,3.3,3.3,0
1043.0,3.3,3.3,3.3,0
1045.0,3.3,3.3,3.3,0
1047.0,3.3,3.3,3.3,0
1048.0,3.3,3.3,3.3,0
1050.0,3.3,3.3,3.3,0
1052.0,3.3,3.3,3.3,0
1054.0,3.3,3.3,3.3,0
1056.0,3.3,3.3,3.3,0
1058.0,3.3,3.3,3.3,0
1060.0,3.3,3.3,3.3,0
1062.0,3.3,3.3,3.3,0
1064.0,3.3,3.3,3.3,0
1067.0,3.3,3.3,3.3,0
1069.0,3.3,3.3,3.3,0
1071.0,3.3,3.3,3.3,0
1073.0,3.3,3.3,3.3,0
1075.0,3.3,3.3,3.3,0
1077.0,3.3,3.3,3.3,0
1079.0,3.3,3.3,3.3,0
1081.0,3.3,3.3,3.3,0
1083.0,3.3,3.3,3.3,0
1085.0,3.3,3.3,3.3,0
1087.0,3.3,3.3,3.3,0
1089.0,3.3,3.3,3.3,0
1091.0,3.3,3.3,3.3,0
1092.0,3.3,3.3,3.3,0
1094.0,3.3,3.3,3.3,0
1096.0,3.3,3.3,3.3,0
1098.0,3.3,3.3,3.3,0
1100.0,3.3,3.3,3.3,0
1102.0,3.3,3.3,3.3,0
1104.0,3.3,3.3,3.3,0
1106.0,3.3,3.3,3.3,0
1108.0,3.3,3.3,3.3,0
1111.0,3.3,3.3,3.3,0
1113.0,3.3,3.3,3.3,0
1115.0,3.3,3.3,3.3,0
1117.0,3.3,3.3,3.3,0
1119.0,3.3,3.3,3.3,0
1121.0,3.3,3.3,3.3,0
1123.0,3.3,3.3,3.3,0
1125.0,3.3,3.3,3.3,0
1127.0,3.3,3.3,3.3,0
1129.0,3.3,3.3,3.3,0
1131.0,3.3,3.3,3.3,0
1133.0,3.3,3.3,3.3,0
1134.0,3.3,3.3,3.3,0
1136.0,3.3,3.3,3.3,0
1138.0,3.3,3.3,3.3,0
1140.0,3.3,3.3,3.3,0
1142.0,3.3,3.3,3.3,0
1144.0,3.3,3.3,3.3,0
1146.0,3.3,3.3,3.3,0
1148.0,3.3,3.3,3.3,0
1150.0,3.3,3.3,3.3,0
1153.0,3.3,3.3,3.3,0
1155.0,3.3,3.3,3.3,0
1157.0,3.3,3.3,3.3,0
1159.0,3.3,3.3,3.3,0
1161.0,3.3,3.3,3.3,0
1163.0,3.3,3.3,3.3,0
1165.0,3.3,3.3,3.3,0
1167.0,3.3,3.3,3.3,0
1169.0,3.3,3.3,3.3,0
1171.0,3.3,3.3,3.3,0
1173.0,3.3,3.3,3.3,0
1175.0,3.3,3.3,3.3,0
1176.0,3.3,3.3,3.3,0
1178.0,3.3,3.3,3.3,0
1180.0,3.3,3.3,3.3,0
1182.0,3.3,3.3,3.3,0
1184.0,3.3,3.3,3.3,0
1186.0,3.3,3.3,3.3,0
1188.0,3.3,3.3,3.3,0
1190.0,3.3,3.3,3.3,0
1192.0,3.3,3.3,3.3,0
1195.0,3.3,3.3,3.3,0
1197.0,3.3,3.3,3.3,0
1199.0,3.3,3.3,3.3,0
1201.0,3.3,3.3,3.3,0
1203.0,3.3,3.3,3.3,0
1205.0,3.3,3.3,3.3,0
1207.0,3.3,3.3,3.3,0
1209.0,3.3,3.3,3.3,0
1211.0,3.3,3.3,3.3,0
1213.0,3.3,3.3,3.3,0
1215.0,3.3,3.3,3.3,0
1217.0,3.3,3.3,3.3,0
1219.0,3.3,3.3,3.3,0
1220.0,3.3,3.3,3.3,0
1222.0,3.3,3.3,3.3,0
1224.0,3.3,3.3,3.3,0
1226.0,3.3,3.3,3.3,0
1228.0,3.3,3.3,3.3,0
1230.0,3.3,3.3,3.3,0
1232.0,3.3,3.3,3.3,0
1234.0,3.3,3.3,3.3,0
1236.0,3.3,3.3,3.3,0
1239.0,3.3,3.3,3.3,0
1241.0,3.3,3.3,3.3,0
1243.0,3.3,3.3,3.3,0
1245.0,3.3,3.3,3.3,0
1247.0,3.3,3.3,3.3,0
1249.0,3.3,3.3,3.3,0
1251.0,3.3,3.3,3.3,0
1253.0,3.3,3.3,3.3,0
1255.0,3.3,3.3,3.3,0
1257.0,3.3,3.3,3.3,0
1259.0,3.3,3.3,3.3,0
1261.0,3.3,3.3,3.3,0
1262.0,3.3,3.3,3.3,0
1264.0,3.3,3.3,3.3,0
1266.0,3.3,3.3,3.3,0
1268.0,3.3,3.3,3.3,0
1270.0,3.3,3.3,3.3,0
1272.0,3.3,3.3,3.3,0
1274.0,3.3,3.3,3.3,0
1276.0,3.3,3.3,3.3,0
1278.0,3.3,3.3,3.3,0
1281.0,3.3,3.3,3.3,0
1283.0,3.3,3.3,3.3,0
1285.0,3.3,3.3,3.3,0
1287.0,3.3,3.3,3.3,0
1289.0,3.3,3.3,3.3,0
1291.0,3.3,3.3,3.3,0
1293.0,3.3,3.3,3.3,0
1295.0,3.3,3.3,3.3,0
1297.0,3.3,3.3,3.3,0
1299.0,3.3,3.3,3.3,0
1301.0,3.3,3.3,3.3,0
1303.0,3.3,3.3,3.3,0
1304.0,3.3,3.3,3.3,0
1306.0,3.3,3.3,3.3,0
1308.0,3.3,3.3,3.3,0
1310.0,3.3,0.0,3.3,0
1312.0,3.3,3.09,3.3,0
1314.0,3.3,3.3,3.3,0
1316.0,3.3,3.3,3.3,0
1318.0,3.3,3.3,3.3,0
1320.0,3.3,0.0,3.3,0
1323.0,3.3,0.0,3.3,0
1325.0,3.3,0.0,3.3,0
1327.0,3.3,0.0,3.3,0
1329.0,3.3,0.0,3.3,0
1331.0,3.3,0.0,3.3,0
1333.0,3.3,0.0,3.3,0
1335.0,3.3,0.0,3.3,0
1337.0,3.3,0.0,3.3,0
1339.0,3.3,0.0,3.3,0
1341.0,3.3,0.0,3.3,0
1343.0,3.3,0.0,3.3,0
1345.0,3.3,0.0,3.3,0
1347.0,3.3,0.0,3.3,0
1348.0,3.3,0.0,3.3,0
1350.0,3.3,0.0,3.3,0
1352.0,3.3,0.0,3.3,0
1354.0,3.3,0.0,3.3,0
1356.0,3.3,0.0,3.3,0
1358.0,3.3,0.0,3.3,0
1360.0,3.3,0.0,3.3,0
1362.0,3.3,0.0,3.3,0
1364.0,3.3,0.0,3.3,0
1367.0,3.3,0.0,3.3,0
1369.0,3.3,0.0,3.3,0
1371.0,3.3,0.0,3.3,0
1373.0,3.3,0.0,3.3,0
1375.0,3.3,0.0,3.3,0
1377.0,3.3,0.0,3.3,0
1379.0,3.3,0.0,3.3,0
1381.0,3.3,0.0,3.3,0
1383.0,3.3,0.0,3.3,0
1385.0,3.3,0.0,3.3,0
1387.0,3.3,0.0,3.3,0
1389.0,3.3,0.0,3.3,0
1390.0,3.3,0.0,3.3,0
1392.0,3.3,0.0,3.3,0
1394.0,3.3,0.0,3.3,0
1396.0,3.3,0.0,3.3,0
1398.0,3.3,0.0,3.3,0
1400.0,3.3,0.0,3.3,0
1402.0,3.3,0.0,3.3,0
1404.0,3.3,0.0,3.3,0
1406.0,3.3,0.0,3.3,0
1409.0,3.3,0.0,3.3,0
1411.0,3.3,0.0,3.3,0
1413.0,3.3,0.0,3.3,0
1415.0,3.3,0.0,3.3,0
1417.0,3.3,0.0,3.3,0
1419.0,3.3,0.0,3.3,0
1421.0,3.3,0.0,3.3,0
1423.0,3.3,0.0,3.3,0
1425.0,3.3,0.0,3.3,0
1427.0,3.3,0.0,3.3,0
1429.0,3.3,0.0,3.3,0
1431.0,3.3,0.0,3.3,0
1432.0,3.3,0.0,3.3,0
1434.0,3.3,0.0,3.3,0
1436.0,3.3,0.0,3.3,0
1438.0,3.3,0.0,3.3,0
1440.0,3.3,0.0,3.3,0
1442.0,3.3,0.0,3.3,0
1444.0,3.3,0.0,3.3,0
1446.0,3.3,0.0,3.3,0
1448.0,3.3,0.0,3.3,0
1451.0,3.3,0.0,3.3,0
1453.0,3.3,0.0,3.3,0
1455.0,3.3,0.0,3.3,0
1457.0,3.3,0.0,3.3,0
1459.0,3.3,0.0,3.3,0
1461.0,3.3,0.0,3.3,0
1463.0,3.3,0.0,3.3,0
1465.0,3.3,0.0,3.3,0
1467.0,3.3,0.0,3.3,0
1469.0,3.3,0.0,3.3,0
1471.0,3.3,0.0,3.3,0
1473.0,3.3,0.0,3.3,0
1475.0,3.3,0.0,3.3,0
1476.0,3.3,0.0,3.3,0
1478.0,3.3,0.0,3.3,0
1480.0,3.3,0.0,3.3,0
1482.0,3.3,0.0,3.3,0
1484.0,3.3,0.0,3.3,0
1486.0,3.3,0.0,3.3,0
1488.0,3.3,0.0,3.3,0
1490.0,3.3,0.0,3.3,0
1492.0,3.3,0.0,3.3,0
1495.0,3.3,0.0,3.3,0
1497.0,3.3,0.0,3.3,0
1499.0,3.3,0.0,3.3,0
1501.0,3.3,0.0,3.3,0
1503.0,3.3,0.0,3.3,0
1505.0,3.3,0.0,3.3,0
1507.0,3.3,0.0,3.3,0
1509.0,3.3,0.0,3.3,0
1511.0,3.3,0.0,3.3,0
1513.0,3.3,0.0,3.3,0
1515.0,3.3,0.0,3.3,0
1517.0,3.3,0.0,3.3,0
1518.0,3.3,0.0,3.3,0
1520.0,3.3,0.0,3.3,0
1522.0,3.3,0.0,3.3,0
1524.0,3.3,0.0,3.3,0
1526.0,3.3,0.0,3.3,0
1528.0,3.3,0.0,3.3,0
1530.0,3.3,0.0,3.3,0
1532.0,3.3,0.0,3.3,0
1534.0,3.3,0.0,3.3,0
1537.0,3.3,0.0,3.3,0
1539.0,3.3,1.18,3.3,0
1541.0,3.3,0.0,3.3,0
1543.0,3.3,0.0,3.3,0
1545.0,3.3,0.0,3.3,0
1547.0,3.3,0.0,3.3,0
1549.0,3.3,0.0,3.3,0
1551.0,3.3,0.0,3.3,0
1553.0,3.3,0.0,3.3,0
1555.0,3.3,0.0,3.3,0
1557.0,3.3,3.3,3.3,0
1559.0,3.3,3.3,3.3,0
1560.0,3.3,3.3,3.3,0
1562.0,3.3,0.0,3.3,0
1564.0,3.3,0.0,3.3,0
1566.0,3.3,0.0,3.3,0
1568.0,3.3,0.0,3.3,0
1570.0,3.3,0.0,3.3,0
1572.0,3.3,0.0,3.3,0
1574.0,3.3,2.53,3.3,0
1576.0,3.3,3.3,3.3,0
1579.0,3.3,3.3,3.3,0
1581.0,3.3,3.3,3.3,0
1583.0,3.3,0.0,3.3,0
1585.0,3.3,0.0,3.3,0
1587.0,3.3,0.0,3.3,0
1589.0,3.3,0.0,3.3,0
1591.0,3.3,0.0,3.3,0
1593.0,3.3,0.0,3.3,0
1595.0,3.3,3.3,3.3,0
1597.0,3.3,3.3,3.3,0
1599.0,3.3,3.3,3.3,0
1601.0,3.3,3.3,3.3,0
1603.0,3.3,0.83,3.3,0
1604.0,3.3,0.0,3.3,0
1606.0,3.3,0.0,3.3,0
1608.0,3.3,0.0,3.3,0
1610.0,3.3,0.0,3.3,0
1612.0,3.3,0.0,3.3,0
1614.0,3.3,3.3,3.3,0
1616.0,3.3,3.3,3.3,0
1618.0,3.3,3.3,3.3,0
1620.0,3.3,3.3,3.3,0
1623.0,3.3,0.0,3.3,0
1625.0,3.3,0.0,3.3,0
1627.0,3.3,0.0,3.3,0
1629.0,3.3,0.0,3.3,0
1631.0,3.3,0.0,3.3,0
1633.0,3.3,0.0,3.3,0
1635.0,3.3,3.3,3.3,0
1637.0,3.3,3.3,3.3,0
1639.0,3.3,3.3,3.3,0
1641.0,3.3,3.3,3.3,0
1643.0,3.3,3.3,3.3,0
1645.0,3.3,0.0,3.3,0
1646.0,3.3,0.0,3.3,0
1648.0,3.3,0.0,3.3,0
1650.0,3.3,0.0,3.3,0
1652.0,3.3,0.0,3.3,0
1654.0,3.3,3.3,3.3,0
1656.0,3.3,3.3,3.3,0
1658.0,3.3,3.3,3.3,0
1660.0,3.3,3.3,3.3,0
1662.0,3.3,3.3,3.3,0
1665.0,3.3,0.0,3.3,0
1667.0,3.3,0.0,3.3,0
1669.0,3.3,0.0,3.3,0
1671.0,3.3,0.0,3.3,0
1673.0,3.3,0.0,3.3,0
1675.0,3.3,3.3,3.3,0
1677.0,3.3,3.3,3.3,0
1679.0,3.3,3.3,3.3,0
1681.0,3.3,3.3,3.3,0
1683.0,3.3,2.56,3.3,0
1685.0,3.3,0.0,3.3,0
1687.0,3.3,0.0,3.3,0
1688.0,0.0,0.0,3.3,0
1690.0,0.0,0.0,3.3,0
1692.0,3.3,0.0,3.3,0
1694.0,3.3,3.3,3.3,0
1696.0,3.3,3.3,3.3,0
1698.0,3.3,3.3,3.3,0
1700.0,3.3,3.3,3.3,0
1702.0,0.0,3.3,3.3,0
1704.0,0.0,0.0,3.3,0
1707.0,0.0,0.0,3.3,0
1709.0,0.0,0.0,3.3,0
1711.0,0.0,0.0,3.3,0
1713.0,0.0,0.0,3.3,0
1715.0,0.0,3.3,3.3,0
1717.0,0.45,3.3,3.3,0
1719.0,2.0,3.3,3.3,0
1721.0,0.0,3.3,3.3,0
1723.0,0.0,3.3,3.3,0
1725.0,0.0,0.0,3.3,0
1727.0,0.0,0.0,3.3,0
1729.0,0.0,0.0,3.3,0
1731.0,0.0,0.0,3.3,0
1732.0,0.0,1.85,3.3,0
1734.0,0.0,3.3,3.3,0
1736.0,0.0,3.3,3.3,0
1738.0,0.0,3.3,3.3,0
1740.0,0.0,3.3,3.3,0
1742.0,0.0,3.3,3.3,0
1744.0,0.0,0.0,3.3,0
1746.0,0.0,0.0,3.3,0
1748.0,0.0,0.0,3.3,0
1751.0,0.0,0.0,3.3,0
1753.0,0.0,1.79,3.3,0
1755.0,0.0,3.3,3.3,0
1757.0,0.0,3.3,3.3,0
1759.0,0.0,3.3,3.3,0
1761.0,0.0,3.3,3.3,0
1763.0,0.0,3.3,3.3,0
1765.0,0.0,0.0,3.3,0
1767.0,0.0,0.0,3.3,0
1769.0,0.0,0.0,3.3,0
1771.0,0.0,0.0,3.3,0
1773.0,0.0,0.0,3.3,0
1774.0,0.0,3.3,3.3,0
1776.0,0.0,3.3,3.3,0
1778.0,0.0,3.3,3.3,0
1780.0,0.0,3.3,3.3,0
1782.0,0.0,0.0,3.3,0
1784.0,0.0,0.0,3.3,0
1786.0,0.0,0.0,3.3,0
1788.0,0.0,0.0,3.3,0
1790.0,0.0,0.0,3.3,0
1793.0,0.0,0.0,3.3,0
1795.0,0.0,3.3,3.3,0
1797.0,0.0,3.3,3.3,0
1799.0,0.0,3.3,3.3,0
1801.0,0.0,3.3,3.3,0
1803.0,0.0,2.4,3.3,0
1805.0,0.0,0.0,3.3,0
1807.0,0.0,0.0,3.3,0
1809.0,0.0,0.0,3.3,0
1811.0,0.0,0.0,3.3,0
1813.0,0.0,3.3,3.3,0
1815.0,0.0,3.3,3.3,0
1816.0,0.0,3.3,3.3,0
1818.0,0.0,3.3,3.3,0
1820.0,0.0,3.3,3.3,0
1822.0,0.0,3.3,3.3,0
1824.0,0.0,0.0,3.3,0
1826.0,0.0,0.0,3.3,0
1828.0,0.0,0.0,3.3,0
1830.0,0.0,0.0,3.3,0
1832.0,0.0,3.3,3.3,0
1835.0,0.0,3.3,3.3,0
1837.0,0.0,3.3,3.3,0
1839.0,0.0,3.3,3.3,0
1841.0,0.0,3.3,3.3,0
1843.0,0.0,3.3,3.3,0
1845.0,0.0,0.0,3.3,0
1847.0,0.0,0.0,3.3,0
1849.0,0.0,0.0,3.3,0
1851.0,0.0,0.0,3.3,0
1853.0,0.0,1.99,3.3,0
1855.0,0.0,3.3,3.3,0
1857.0,0.0,3.3,3.3,0
1859.0,0.0,3.3,3.3,0
1860.0,0.0,3.3,3.3,0
1862.0,0.0,0.0,3.3,0
1864.0,0.0,0.0,3.3,0
1866.0,0.0,0.0,3.3,0
1868.0,0.0,0.0,3.3,0
1870.0,0.0,0.0,3.3,0
1872.0,0.0,0.0,3.3,0
1874.0,0.0,1.42,3.3,0
1876.0,0.0,3.3,3.3,0
1879.0,0.0,3.3,3.3,0
1881.0,0.0,0.0,3.3,0
1883.0,0.0,0.0,3.3,0
1885.0,0.0,0.0,3.3,0
1887.0,0.0,0.0,3.3,0
1889.0,0.0,0.0,3.3,0
1891.0,0.0,0.0,3.3,0
1893.0,0.0,0.0,3.3,0
1895.0,0.0,0.0,3.3,0
1897.0,0.0,0.0,3.3,0
1899.0,0.0,0.0,3.3,0
1901.0,0.0,0.0,3.3,0
1902.0,0.0,0.0,3.3,0
1904.0,0.0,0.0,3.3,0
1906.0,0.0,0.0,3.3,0
1908.0,0.0,0.0,3.3,0
1910.0,0.0,0.0,3.3,0
1912.0,0.0,0.0,3.3,0
1914.0,0.0,3.3,3.3,0
1916.0,0.0,3.3,3.3,0
1918.0,0.0,3.3,3.3,0
1921.0,0.0,3.3,3.3,0
1923.0,0.0,3.3,3.3,0
1925.0,0.0,3.3,3.3,0
1927.0,0.0,0.0,3.3,0
1929.0,0.0,3.3,3.3,0
1931.0,0.0,3.3,3.3,0
1933.0,0.0,3.3,3.3,0
1935.0,0.0,3.3,3.3,0
1937.0,0.0,0.0,3.3,0
1939.0,0.0,0.0,3.3,0
1941.0,0.0,0.0,3.3,0
1943.0,0.0,0.0,3.3,0
1944.0,0.0,0.0,3.3,0
1946.0,0.0,0.0,3.3,0
1948.0,0.0,0.0,3.3,0
1950.0,0.0,0.0,3.3,0
1952.0,0.0,0.0,3.3,0
1954.0,0.0,0.0,3.3,0
1956.0,0.0,0.0,3.3,0
1958.0,0.0,0.0,3.3,0
1960.0,0.0,0.0,3.3,0
1963.0,0.0,0.0,3.3,0
1965.0,0.0,0.0,3.3,0
1967.0,0.0,0.0,3.3,0
1969.0,0.0,0.0,3.3,0
1971.0,0.0,0.0,3.3,0
1973.0,0.0,0.0,3.3,0
1975.0,0.0,0.0,3.3,0
1977.0,0.0,0.0,3.3,0
1979.0,0.0,0.0,3.3,0
1981.0,0.0,0.0,3.3,0
1983.0,0.0,0.0,3.3,0
1985.0,0.0,0.0,3.3,0
1987.0,0.0,0.0,3.3,0
1988.0,0.0,0.0,3.3,0
1990.0,0.0,0.0,3.3,0
1992.0,0.0,0.0,3.3,0
1994.0,0.0,0.0,3.3,0
1996.0,0.0,0.0,3.3,0
1998.0,0.0,0.0,3.3,0
2000.0,0.0,0.0,3.3,0
2002.0,0.0,0.0,3.3,0
2004.0,0.0,0.0,3.3,0
2007.0,0.0,0.76,3.3,0
2009.0,0.0,1.81,3.3,0
2011.0,0.0,2.84,3.3,0
2013.0,0.0,3.3,3.3,0
2015.0,0.0,3.3,3.3,0
2017.0,0.0,3.3,3.3,0
2019.0,0.0,3.3,3.3,0
2021.0,0.0,3.3,3.3,0
2023.0,0.0,3.3,3.3,0
2025.0,0.0,3.3,3.3,0
2027.0,0.0,3.3,3.3,0
2029.0,0.0,3.3,3.3,0
2030.0,0.0,3.3,3.3,0
2032.0,0.0,3.3,3.3,0
2034.0,0.0,3.3,3.3,0
2036.0,0.0,3.3,3.3,0
2038.0,0.0,3.3,3.3,0
2040.0,0.0,3.3,3.3,0
2042.0,0.0,3.3,3.3,0
2044.0,0.0,3.3,3.3,0
2046.0,0.0,3.3,3.3,0
2049.0,0.0,3.3,3.3,0
2051.0,0.0,3.3,3.3,0
2053.0,0.0,3.3,3.3,0
2055.0,0.0,3.3,3.3,0
2057.0,0.0,3.3,3.3,0
2059.0,0.0,3.3,3.3,0
2061.0,0.0,3.3,3.3,0
2063.0,0.0,3.3,3.3,0
2065.0,0.0,3.3,3.3,0
2067.0,0.0,3.3,3.3,0
2069.0,0.0,3.3,3.3,0
2071.0,0.0,3.3,3.3,0
2072.0,0.0,3.3,3.3,0
2074.0,0.0,3.3,3.3,0
2076.0,0.0,3.3,3.3,0
2078.0,0.0,3.3,3.3,0
2080.0,0.0,3.3,3.3,0
2082.0,0.0,3.3,3.3,0
2084.0,0.43,3.3,3.3,0
2086.0,1.66,3.3,3.3,0
2088.0,2.92,3.3,3.3,0
2091.0,3.3,3.3,3.3,0
2093.0,3.3,3.3,3.3,0
2095.0,3.3,3.3,3.3,0
2097.0,3.3,3.3,3.3,0
2099.0,3.3,3.3,3.3,0
2101.0,3.3,3.3,3.3,0
2103.0,3.3,3.3,3.3,0
2105.0,3.3,3.3,3.3,0
2107.0,3.3,3.3,3.3,0
2109.0,3.3,3.3,3.3,0
2111.0,3.3,3.3,3.3,0
2113.0,3.3,3.3,3.3,0
2115.0,3.3,3.3,3.3,0
2116.0,3.3,3.3,3.3,0
2118.0,3.3,3.3,3.3,0
2120.0,3.3,3.3,3.3,0
2122.0,3.3,3.3,3.3,0
2124.0,3.3,3.3,3.3,0
2126.0,3.3,3.3,3.3,0
2128.0,3.3,3.3,3.3,0
2130.0,3.3,3.3,3.3,0
2132.0,3.3,3.3,3.3,0
2135.0,3.3,3.3,3.3,0
2137.0,3.3,3.3,3.3,0
2139.0,3.3,3.3,3.3,0
2141.0,3.3,3.3,3.3,0
2143.0,3.3,3.3,3.3,0
2145.0,3.3,3.3,3.3,0
2147.0,3.3,3.3,3.3,0
2149.0,3.3,3.3,3.3,0
2151.0,3.3,3.3,3.3,0
2153.0,3.3,3.3,3.3,0
2155.0,3.3,3.3,3.3,0
2157.0,3.3,3.3,3.3,0
2158.0,3.3,3.3,3.3,0
2160.0,3.3,3.3,3.3,0
2162.0,3.3,3.3,3.3,0
2164.0,3.3,3.3,3.3,0
2166.0,3.3,3.3,3.3,0
2168.0,3.3,3.3,3.3,0
2170.0,3.3,3.3,3.3,0
2172.0,3.3,3.3,3.3,0
2174.0,3.3,3.3,3.3,0
2177.0,3.3,3.3,3.3,0
2179.0,3.3,3.3,3.3,0
2181.0,3.3,3.3,3.3,0
2183.0,3.3,3.3,3.3,0
2185.0,3.3,3.3,3.3,0
2187.0,3.3,3.3,3.3,0
2189.0,3.3,3.3,3.3,0
2191.0,3.3,3.3,3.3,0
2193.0,3.3,3.3,3.3,0
2195.0,3.3,3.3,3.3,0
2197.0,3.3,3.3,3.3,0
2199.0,3.3,3.3,3.3,0
2200.0,3.3,3.3,3.3,0
2202.0,3.3,3.3,0.0,0
2204.0,3.3,3.3,0.0,0
2206.0,3.3,3.3,0.0,0
2208.0,3.3,3.3,3.3,0
2210.0,3.3,3.3,3.3,0
2212.0,3.3,3.3,3.3,0
2214.0,3.3,3.3,3.3,0
2216.0,3.3,3.3,3.3,0
2219.0,3.3,3.3,3.3,0
2221.0,3.3,3.3,3.3,0
2223.0,3.3,3.3,3.3,0
2225.0,3.3,3.3,3.3,0
2227.0,3.3,3.3,3.3,0
2229.0,3.3,3.3,3.3,0
2231.0,3.3,3.3,3.3,0
2233.0,3.3,3.3,3.3,0
2235.0,3.3,3.3,3.3,0
2237.0,3.3,3.3,3.3,0
2239.0,3.3,3.3,3.3,0
2241.0,3.3,3.3,3.3,0
2243.0,3.3,3.3,3.3,0
2244.0,3.3,3.3,0.0,0
2246.0,3.3,3.3,3.3,0
2248.0,3.3,3.3,3.3,0
2250.0,3.3,3.3,3.3,0
2252.0,3.3,3.3,3.3,0
2254.0,3.3,3.3,3.3,0
2256.0,3.3,3.3,3.3,0
2258.0,3.3,3.3,3.3,0
2260.0,3.3,3.3,3.3,0
2263.0,3.3,3.3,3.3,0
2265.0,3.3,3.3,0.0,0
2267.0,3.3,3.3,1.65,0
2269.0,3.3,3.3,3.3,0
2271.0,3.3,3.3,3.3,0
2273.0,3.3,3.3,3.3,0
2275.0,3.3,3.3,3.3,0
2277.0,3.3,3.3,3.3,0
2279.0,3.3,3.3,3.3,0
2281.0,3.3,3.3,3.3,0
2283.0,3.3,3.3,3.3,0
2285.0,3.3,3.3,0.0,0
2286.0,3.3,3.3,0.0,0
2288.0,3.3,3.3,3.3,0
2290.0,3.3,3.3,3.3,0
2292.0,3.3,3.3,3.3,0
2294.0,3.3,3.3,3.3,0
2296.0,3.3,3.3,3.3,0
2298.0,3.3,3.3,3.3,0
2300.0,3.3,3.3,3.3,0
2302.0,3.3,3.3,3.3,0
2305.0,3.3,3.3,3.3,0
2307.0,3.3,3.3,3.3,0
2309.0,3.3,3.3,3.3,0
2311.0,3.3,3.3,3.3,0
2313.0,3.3,3.3,3.3,0
2315.0,3.3,3.3,3.3,0
2317.0,3.3,3.3,3.3,0
2319.0,3.3,3.3,3.3,0
2321.0,3.3,3.3,3.3,0
2323.0,3.3,3.3,3.3,0
2325.0,3.3,3.3,0.0,0
2327.0,3.3,3.3,3.3,0
2328.0,3.3,3.3,3.3,0
2330.0,3.3,3.3,3.3,0
2332.0,3.3,3.3,3.3,0
2334.0,3.3,3.3,3.3,0
2336.0,3.3,3.3,3.3,0
2338.0,3.3,3.3,3.3,0
2340.0,3.3,3.3,3.3,0
2342.0,3.3,3.3,3.3,0
2344.0,3.3,3.3,0.84,0
2347.0,3.3,3.3,3.3,0
2349.0,3.3,3.3,3.3,0
2351.0,3.3,3.3,3.3,0
2353.0,3.3,3.3,3.3,0
2355.0,3.3,3.3,3.3,0
2357.0,3.3,3.3,3.3,0
2359.0,3.3,3.3,3.3,0
2361.0,3.3,3.3,3.3,0
2363.0,3.3,3.3,3.3,0
2365.0,3.3,3.3,3.3,0
2367.0,3.3,3.3,3.3,0
2369.0,3.3,3.3,3.3,0
2371.0,3.3,3.3,3.3,0
2372.0,3.3,3.3,3.3,0
2374.0,3.3,3.3,3.3,0
2376.0,3.3,3.3,3.3,0
2378.0,3.3,3.3,3.3,0
2380.0,3.3,3.3,3.3,0
2382.0,3.3,3.3,3.3,0
2384.0,3.3,3.3,3.3,0
2386.0,3.3,3.3,3.3,0
2388.0,3.3,3.3,3.3,0
2391.0,3.3,3.3,3.3,0
2393.0,3.3,3.3,3.3,0
2395.0,3.3,3.3,3.3,0
2397.0,3.3,3.3,3.3,0
2399.0,3.3,3.3,3.3,0
2401.0,3.3,3.3,3.3,0
2403.0,3.3,3.3,3.3,0
2405.0,3.3,3.3,3.3,0
2407.0,3.3,3.3,3.3,0
2409.0,3.3,3.3,3.3,0
2411.0,3.3,3.3,3.3,0
2413.0,3.3,3.3,3.3,0
2414.0,3.3,3.3,3.3,0
2416.0,3.3,3.3,3.3,0
2418.0,3.3,3.3,3.3,0
2420.0,3.3,3.3,3.3,0
2422.0,3.3,3.3,3.3,0
2424.0,3.3,3.3,2.5,0
2426.0,3.3,3.3,3.3,0
2428.0,3.3,3.3,3.3,0
2430.0,3.3,3.3,3.3,0
2433.0,3.3,3.3,3.3,0
2435.0,3.3,3.3,3.3,0
2437.0,3.3,3.3,3.3,0
2439.0,3.3,3.3,3.3,0
2441.0,3.3,3.3,3.3,0
2443.0,3.3,3.3,3.3,0
2445.0,3.3,3.3,0.0,0
2447.0,3.3,3.3,3.3,0
2449.0,3.3,3.3,3.3,0
2451.0,3.3,3.3,3.3,0
2453.0,3.3,3.3,3.3,0
2455.0,3.3,3.3,3.3,0
2456.0,3.3,3.3,3.3,0
2458.0,3.3,3.3,3.3,0
2460.0,3.3,3.3,3.3,0
2462.0,3.3,3.3,3.3,0
2464.0,3.3,3.3,3.3,0
2466.0,3.3,3.3,3.3,0
2468.0,3.3,3.3,3.3,0
2470.0,3.3,3.3,0.0,0
2472.0,3.3,3.3,0.0,0
2475.0,3.3,3.3,0.0,0
2477.0,3.3,3.3,0.0,0
2479.0,3.3,3.3,0.0,0
2481.0,3.3,3.3,0.0,0
2483.0,3.3,3.3,3.3,0
2485.0,3.3,3.3,3.3,0
2487.0,3.3,3.3,3.3,0
2489.0,3.3,3.3,3.3,0
2491.0,3.3,3.3,0.0,0
2493.0,3.3,3.3,0.0,0
2495.0,3.3,3.3,0.0,0
2497.0,3.3,3.3,0.0,0
2499.0,3.3,3.3,0.0,0
2500.0,3.3,3.3,0.0,0
2502.0,3.3,3.3,3.3,0
2504.0,3.3,3.3,3.3,0
2506.0,3.3,3.3,3.3,0
2508.0,3.3,3.3,3.3,0
2510.0,3.3,2.97,3.3,0
2512.0,3.3,2.22,3.3,0
2514.0,3.3,1.51,3.3,0
2516.0,3.3,0.86,3.3,0
2519.0,3.3,0.26,3.3,0
2521.0,3.3,0.0,3.3,0
2523.0,3.3,0.0,3.3,0
2525.0,3.3,0.0,3.3,0
2527.0,3.3,0.0,3.3,0
2529.0,3.3,0.0,3.3,0
2531.0,3.3,0.0,3.3,0
2533.0,3.3,0.0,3.3,0
2535.0,3.3,0.0,3.3,0
2537.0,3.3,0.0,3.3,0
2539.0,3.3,0.0,3.3,0
2541.0,3.3,0.0,3.3,0
2542.0,3.3,0.0,3.3,0
2544.0,3.3,0.0,3.3,0
2546.0,3.3,0.0,3.3,0
2548.0,3.3,0.0,3.3,0
2550.0,3.3,0.0,3.3,0
2552.0,3.3,0.0,3.3,0
2554.0,3.3,0.0,3.3,0
2556.0,3.3,0.0,3.3,0
2558.0,3.3,0.0,3.3,0
2561.0,3.3,0.0,3.3,0
2563.0,3.3,0.0,3.3,0
2565.0,3.3,0.0,3.3,0
2567.0,3.3,0.0,3.3,0
2569.0,3.3,0.0,3.3,0
2571.0,3.3,0.0,3.3,0
2573.0,3.3,0.0,3.3,0
2575.0,3.3,0.0,3.3,0
2577.0,3.3,0.0,3.3,0
2579.0,3.3,0.0,3.3,0
2581.0,3.3,0.0,3.3,0
2583.0,3.3,0.0,3.3,0
2584.0,3.3,0.0,3.3,0
2586.0,3.3,0.0,3.3,0
2588.0,3.3,0.0,3.3,0
2590.0,3.3,0.0,0.0,0
2592.0,3.3,0.0,0.0,0
2594.0,3.3,0.0,0.0,0
2596.0,3.3,0.0,0.0,0
2598.0,3.3,0.0,0.0,0
2600.0,3.3,0.0,0.0,0
2603.0,3.3,0.0,3.3,0
2605.0,3.3,0.0,3.3,0
2607.0,3.3,0.0,0.0,0
2609.0,3.3,0.0,0.0,0
2611.0,3.3,0.0,0.0,0
2613.0,3.3,0.0,0.0,0
2615.0,3.3,0.0,0.0,0
2617.0,3.3,0.0,0.0,0
2619.0,3.3,0.0,0.0,0
2621.0,3.3,0.0,0.0,0
2623.0,3.3,0.0,0.42,0
2625.0,3.3,0.0,3.3,0
2627.0,3.3,0.0,0.0,0
2628.0,3.3,0.0,0.0,0
2630.0,3.3,0.0,0.0,0
2632.0,3.3,0.0,0.0,0
2634.0,3.3,0.0,0.0,0
2636.0,3.3,0.0,0.0,0
2638.0,3.3,0.0,0.0,0
2640.0,3.3,0.0,0.0,0
2642.0,3.3,0.0,3.3,0
2644.0,3.3,0.0,3.3,0
2647.0,3.3,0.0,0.0,0
2649.0,3.3,0.0,0.0,0
2651.0,3.3,0.0,0.0,0
2653.0,3.3,0.0,0.0,0
2655.0,3.3,0.0,0.0,0
2657.0,3.3,0.0,0.0,0
2659.0,3.3,0.0,1.74,0
2661.0,3.3,2.03,3.3,0
2663.0,3.3,2.22,3.3,0
2665.0,3.3,1.86,3.3,0
2667.0,3.3,1.44,3.3,0
2669.0,3.3,1.05,3.3,0
2670.0,3.3,0.0,3.3,0
2672.0,3.3,0.0,3.3,0
2674.0,3.3,0.0,0.0,0
2676.0,3.3,0.0,0.0,0
2678.0,3.3,0.0,0.0,0
2680.0,3.3,3.3,3.3,0
2682.0,3.3,3.3,3.3,0
2684.0,3.3,3.3,3.3,0
2686.0,3.3,3.3,3.3,0
2689.0,3.3,3.3,3.3,0
2691.0,3.3,0.0,3.3,0
2693.0,3.3,0.0,3.3,0
2695.0,3.3,0.0,0.0,0
2697.0,3.3,0.0,0.0,0
2699.0,3.3,0.0,3.3,0
2701.0,3.3,3.3,3.3,0
2703.0,3.3,3.3,3.3,0
2705.0,3.3,3.3,3.3,0
2707.0,3.3,3.3,3.3,0
2709.0,3.3,3.3,3.3,0
2711.0,3.3,0.0,3.3,0
2712.0,3.3,0.0,3.3,0
2714.0,3.3,0.0,3.3,0
2716.0,3.3,0.0,3.3,0
2718.0,3.3,0.0,3.3,0
2720.0,3.3,2.44,3.3,0
2722.0,3.3,3.3,3.3,0
2724.0,3.3,3.3,3.3,0
2726.0,3.3,3.3,3.3,0
2728.0,3.3,3.3,3.3,0
2731.0,3.3,0.0,3.3,0
2733.0,3.3,0.0,3.3,0
2735.0,3.3,0.0,3.3,0
2737.0,3.3,0.0,3.3,0
2739.0,3.3,0.0,3.3,0
2741.0,3.3,2.24,3.3,0
2743.0,3.3,3.3,3.3,0
2745.0,3.3,3.3,3.3,0
2747.0,3.3,3.3,3.3,0
2749.0,3.3,3.3,3.3,0
2751.0,3.3,0.0,3.3,0
2753.0,3.3,0.0,3.3,0
2755.0,3.3,0.0,3.3,0
2756.0,3.3,0.0,3.3,0
2758.0,3.3,0.0,3.3,0
2760.0,3.3,2.33,3.3,0
2762.0,3.3,3.3,3.3,0
2764.0,3.3,3.3,3.3,0
2766.0,3.3,3.3,3.3,0
2768.0,3.3,3.3,3.3,0
2770.0,3.3,0.0,3.3,0
2772.0,3.3,0.0,3.3,0
2775.0,3.3,0.0,3.3,0
2777.0,3.3,0.0,3.3,0
2779.0,3.3,0.0,3.3,0
2781.0,3.3,2.47,3.3,0
2783.0,3.3,3.3,3.3,0
2785.0,3.3,3.3,3.3,0
2787.0,3.3,3.3,0.15,0
2789.0,3.3,3.3,0.0,0
2791.0,3.3,0.0,0.0,0
2793.0,3.3,0.0,0.0,0
2795.0,3.3,0.0,0.0,0
2797.0,3.3,0.0,0.0,0
2798.0,3.3,0.0,0.0,0
2800.0,3.3,2.59,0.0,0
2802.0,3.3,3.3,0.0,0
2804.0,3.3,3.3,0.0,0
2806.0,3.3,3.3,0.0,0
2808.0,3.3,3.3,0.0,0
2810.0,3.3,0.0,0.0,0
2812.0,3.3,0.0,0.0,0
2814.0,3.3,0.0,0.0,0
2817.0,3.3,0.0,0.0,0
2819.0,3.3,0.0,3.3,0
2821.0,3.3,3.16,3.3,0
2823.0,3.3,3.3,3.3,0
2825.0,3.3,3.3,3.3,0
2827.0,3.3,3.3,3.3,0
2829.0,3.3,3.3,3.3,0
2831.0,3.3,0.0,3.3,0
2833.0,3.3,0.0,3.3,0
2835.0,3.3,0.0,3.3,0
2837.0,3.3,0.0,3.3,0
2839.0,3.3,0.0,3.3,0
2840.0,3.3,3.3,3.3,0
2842.0,3.3,3.3,3.3,0
2844.0,3.3,3.3,3.3,0
2846.0,3.3,3.3,3.3,0
2848.0,3.3,3.3,3.3,0
2850.0,3.3,0.0,0.0,0
2852.0,3.3,0.0,3.3,0
2854.0,3.3,0.0,3.3,0
2856.0,3.3,0.0,3.3,0
2859.0,3.3,0.0,3.3,0
2861.0,3.3,3.3,3.3,0
2863.0,3.3,3.3,3.3,0
2865.0,3.3,3.3,3.3,0
2867.0,3.3,3.3,3.3,0
2869.0,3.3,3.3,3.3,0
2871.0,3.3,0.0,3.3,0
2873.0,3.3,0.0,3.3,0
2875.0,3.3,0.0,3.3,0
2877.0,3.3,0.0,3.3,0
2879.0,3.3,0.0,0.0,0
2881.0,3.3,3.3,0.0,0
2883.0,3.3,3.3,0.0,0
2884.0,3.3,3.3,0.0,0
2886.0,3.3,3.3,0.0,0
2888.0,2.31,3.3,3.3,0
2890.0,1.09,0.0,0.0,0
2892.0,0.0,0.0,0.0,0
2894.0,0.0,0.0,0.0,0
2896.0,0.0,0.0,0.0,0
2898.0,0.0,0.0,0.0,0
2900.0,0.0,3.3,0.0,0
2903.0,0.0,3.3,0.0,0
2905.0,0.0,3.3,0.0,0
2907.0,0.0,3.3,0.0,0
2909.0,0.0,3.3,0.0,0
2911.0,0.0,0.0,0.0,0
2913.0,0.0,0.0,0.0,0
2915.0,0.0,0.0,0.0,0
2917.0,0.0,0.0,0.0,0
2919.0,0.0,0.0,0.0,0
2921.0,0.0,3.3,0.0,0
2923.0,0.0,3.3,0.0,0
2925.0,0.0,3.3,0.0,0
2926.0,0.0,3.3,0.0,0
2928.0,0.0,3.3,0.0,0
2930.0,0.0,0.0,0.0,0
2932.0,0.0,0.0,0.0,0
2934.0,0.0,0.0,0.0,0
2936.0,0.0,0.0,0.0,0
2938.0,0.0,0.0,0.0,0
2940.0,0.0,3.3,0.0,0
2942.0,0.0,3.3,0.0,0
2945.0,0.0,3.3,0.0,0
2947.0,0.0,3.3,0.0,0
2949.0,0.0,3.3,0.0,0
2951.0,0.0,0.0,0.0,0
2953.0,0.0,0.0,0.0,0
2955.0,0.0,0.0,0.0,0
2957.0,0.0,0.0,0.0,0
2959.0,0.0,0.0,0.0,0
2961.0,0.0,3.3,0.0,0
2963.0,0.0,3.3,0.0,0
2965.0,0.0,3.3,0.0,0
2967.0,0.0,3.3,0.0,0
2968.0,0.0,3.3,0.0,0
2970.0,0.0,0.0,1.78,0
2972.0,0.0,0.0,0.0,0
2974.0,0.0,0.0,0.0,0
2976.0,0.0,0.0,0.0,0
2978.0,0.0,0.0,0.0,0
2980.0,0.0,3.3,0.0,0
2982.0,0.0,3.3,0.0,0
2984.0,0.0,3.3,0.0,0
2987.0,0.0,3.3,0.15,0
2989.0,0.0,3.3,3.3,0
2991.0,0.0,0.0,3.3,0
2993.0,0.0,0.0,3.3,0
2995.0,0.0,0.0,0.0,0
2997.0,0.0,0.0,0.0,0
2999.0,0.0,0.0,0.0,0
3001.0,0.0,3.3,0.0,0
3003.0,0.0,3.3,0.0,0
3005.0,0.0,3.3,0.0,0
3007.0,0.0,3.3,1.4,0
3009.0,0.0,3.3,3.3,0
3011.0,0.0,0.0,3.3,0
3012.0,0.0,0.0,3.3,0
3014.0,0.0,0.0,1.59,0
3016.0,0.0,0.0,0.0,0
3018.0,0.0,3.3,0.0,0
3020.0,0.0,3.3,0.0,0
3022.0,0.0,3.3,0.0,0
3024.0,0.0,3.3,0.33,0
3026.0,0.0,3.3,3.3,0
3028.0,0.0,3.3,3.3,0
3031.0,0.0,0.0,3.3,0
3033.0,0.0,0.0,3.3,0
3035.0,0.0,0.0,3.3,0
3037.0,0.0,0.0,0.0,0
3039.0,0.0,3.3,0.0,0
3041.0,0.0,3.3,0.0,0
3043.0,0.0,3.3,0.0,0
3045.0,0.0,3.3,0.0,0
3047.0,0.0,3.3,0.0,0
3049.0,0.0,3.3,3.3,0
3051.0,0.0,1.39,3.3,0
3053.0,0.0,0.0,0.0,0
3054.0,0.0,0.0,0.0,0
3056.0,0.0,3.3,0.0,0
3058.0,0.0,3.3,0.0,0
3060.0,0.0,3.3,0.0,0
3062.0,0.0,3.3,0.0,0
3064.0,0.0,3.3,0.0,0
3066.0,0.0,3.3,0.0,0
3068.0,0.0,3.3,3.3,0
3070.0,0.0,3.3,3.3,0
3073.0,0.0,3.3,1.11,0
3075.0,0.0,3.3,0.0,0
3077.0,0.0,3.3,0.0,0
3079.0,0.0,3.3,0.0,0
3081.0,0.0,3.3,0.0,0
3083.0,0.0,3.3,0.0,0
3085.0,0.0,3.3,0.0,0
3087.0,0.0,3.3,0.73,0
3089.0,0.0,3.3,3.3,0
3091.0,0.0,3.3,3.3,0
3093.0,0.0,3.3,1.63,0
3095.0,0.0,3.3,0.0,0
3097.0,0.0,3.3,0.0,0
3098.0,0.0,3.3,0.0,0
3100.0,0.0,3.3,0.0,0
3102.0,0.0,3.3,0.0,0
3104.0,0.0,3.3,0.0,0
3106.0,0.0,3.3,0.0,0
3108.0,0.0,3.3,0.0,0
3110.0,0.0,3.3,0.0,0
3112.0,0.0,3.3,0.0,0
3115.0,0.0,3.3,0.0,0
3117.0,0.0,3.3,0.0,0
3119.0,0.0,3.3,0.0,0
3121.0,0.0,3.3,0.0,0
3123.0,0.0,3.3,0.0,0
3125.0,0.0,3.3,0.0,0
3127.0,0.0,3.3,0.0,0
3129.0,0.0,3.3,3.3,0
3131.0,0.0,3.3,3.3,0
3133.0,0.0,3.3,0.0,0
3135.0,0.0,3.3,0.0,0
3137.0,0.0,3.3,0.0,0
3139.0,0.0,3.3,0.0,0
3140.0,0.0,3.3,0.0,0
3142.0,0.0,2.87,0.0,0
3144.0,0.0,2.38,0.0,0
3146.0,0.0,1.91,0.0,0
3148.0,0.0,1.47,3.3,0
3150.0,0.0,1.09,3.3,0
3152.0,0.0,0.73,0.0,0
3154.0,0.0,0.0,0.0,0
3156.0,0.0,0.0,0.0,0
3159.0,0.0,0.0,0.0,0
3161.0,0.0,0.0,0.0,0
3163.0,0.0,0.0,0.0,0
3165.0,0.0,0.0,0.0,0
3167.0,0.0,0.0,0.0,0
3169.0,0.0,0.0,3.3,0
3171.0,0.0,0.0,3.3,0
3173.0,0.0,0.0,0.0,0
3175.0,0.0,0.0,0.0,0
3177.0,0.0,0.0,0.0,0
3179.0,0.0,0.0,0.0,0
3181.0,0.0,0.0,0.0,0
3182.0,0.0,0.0,0.0,0
3184.0,0.0,0.0,0.0,0
3186.0,0.0,0.0,0.0,0
3188.0,0.0,0.0,3.3,0
3190.0,0.0,0.0,3.26,0
3192.0,0.0,0.0,0.0,0
3194.0,0.0,0.0,0.0,0
3196.0,0.0,0.0,0.0,0
3198.0,0.0,0.0,0.0,0
3201.0,0.0,0.0,0.0,0
3203.0,0.0,0.0,0.0,0
3205.0,0.0,0.0,0.0,0
3207.0,0.0,0.0,0.0,0
3209.0,0.0,0.0,3.3,0
3211.0,0.0,0.0,3.3,0
3213.0,0.0,0.0,0.0,0
3215.0,0.0,0.0,0.0,0
3217.0,0.0,0.0,0.0,0
3219.0,0.0,0.0,0.0,0
3221.0,0.0,0.0,0.0,0
3223.0,0.0,0.0,0.0,0
3225.0,0.0,0.0,0.0,0
3226.0,0.0,0.0,0.0,0
3228.0,0.0,0.0,3.3,0
3230.0,0.0,0.0,3.3,0
3232.0,0.0,0.0,0.0,0
3234.0,0.0,0.0,0.0,0
3236.0,0.0,0.0,0.0,0
3238.0,0.0,0.0,0.0,0
3240.0,0.0,0.0,0.0,0
3243.0,0.0,0.0,0.0,0
3245.0,0.0,0.0,0.0,0
3247.0,0.0,0.0,0.0,0
3249.0,0.0,0.0,2.57,0
3251.0,0.0,0.0,1.73,0
3253.0,0.0,0.0,0.0,0
3255.0,0.0,0.0,0.0,0
3257.0,0.0,0.0,0.0,0
3259.0,0.0,0.0,0.0,0
3261.0,0.0,0.0,0.0,0
3263.0,0.0,0.0,0.0,0
3265.0,0.0,0.0,0.0,0
3267.0,0.0,0.0,0.0,0
3268.0,0.0,0.0,0.0,0
3270.0,0.0,0.0,0.0,0
3272.0,0.0,0.0,0.0,0
3274.0,0.0,0.0,0.0,0
3276.0,0.0,0.0,0.0,0
3278.0,0.0,0.0,0.0,0
3280.0,0.0,0.0,0.0,0
3282.0,0.0,0.0,0.0,0
3284.0,0.0,0.0,0.0,0
3287.0,0.0,0.0,0.0,0
3289.0,0.0,0.0,0.0,0
3291.0,0.0,0.0,0.0,0
3293.0,0.0,0.0,0.0,0
3295.0,0.0,0.0,0.0,0
3297.0,0.0,0.0,0.0,0
3299.0,0.0,0.0,0.0,0
3301.0,0.0,0.0,0.0,0
3303.0,0.0,0.0,0.0,0
3305.0,0.0,0.0,0.0,0
3307.0,0.0,0.0,0.0,0
3309.0,0.0,0.0,0.0,0
3310.0,0.0,0.0,0.0,0
3312.0,0.0,0.0,0.0,0
3314.0,0.0,0.0,0.0,0
3316.0,0.0,0.0,0.0,0
3318.0,0.0,0.0,0.0,0
3320.0,0.0,0.0,0.0,0
3322.0,0.0,0.0,0.0,0
3324.0,0.0,0.0,0.0,0
3326.0,0.0,0.0,0.0,0
3329.0,0.0,0.0,0.0,0
3331.0,0.0,0.0,0.0,0
3333.0,0.0,0.0,0.0,0
3335.0,0.0,0.0,0.0,0
3337.0,0.0,0.0,0.0,0
3339.0,0.0,0.0,3.3,0
3341.0,0.0,0.0,3.3,0
3343.0,0.0,0.0,3.3,0
3345.0,0.0,0.0,0.0,0
3347.0,0.0,0.0,0.0,0
3349.0,0.0,0.0,0.0,0
3351.0,0.0,0.0,0.0,0
3353.0,0.0,0.0,0.0,0
3354.0,0.0,0.0,0.0,0
3356.0,0.0,0.0,3.3,0
3358.0,0.0,0.0,3.3,0
3360.0,0.0,0.0,3.3,0
3362.0,0.0,0.0,3.3,0
3364.0,0.0,0.0,3.3,0
3366.0,0.0,0.0,3.3,0
3368.0,0.0,0.0,0.0,0
3371.0,0.0,0.0,0.0,0
3373.0,0.0,0.0,0.0,0
3375.0,0.0,0.0,3.3,0
3377.0,0.0,0.0,3.3,0
3379.0,0.0,0.0,3.3,0
3381.0,0.0,0.0,3.3,0
3383.0,0.0,0.0,3.3,0
3385.0,0.0,0.0,3.3,0
3387.0,0.04,0.0,3.3,0
3389.0,0.11,0.0,0.0,0
3391.0,0.19,0.0,0.0,0
3393.0,0.25,0.0,0.0,0
3395.0,0.3,0.0,3.3,0
3396.0,0.37,0.0,3.3,0
3398.0,0.43,0.0,3.3,0
3400.0,0.49,0.0,3.3,0
3402.0,0.54,0.0,3.3,0
3404.0,0.6,0.0,3.3,0
3406.0,0.66,0.0,3.3,0
3408.0,0.72,0.0,0.0,0
3410.0,0.77,0.0,0.0,0
3412.0,0.83,0.0,0.0,0
3415.0,0.88,0.0,3.3,0
3417.0,0.95,0.0,3.3,0
3419.0,1.0,0.0,3.3,0
3421.0,1.05,0.0,3.3,0
3423.0,1.09,0.0,3.3,0
3425.0,1.13,0.0,3.3,0
3427.0,1.18,0.0,3.3,0
3429.0,1.23,0.0,0.0,0
3431.0,1.27,0.0,0.0,0
3433.0,1.32,0.0,0.0,0
3435.0,1.35,0.0,3.3,0
3437.0,1.39,0.0,3.3,0
3438.0,1.43,0.0,3.3,0
3440.0,1.47,0.0,3.3,0
3442.0,1.51,0.0,3.3,0
3444.0,1.55,0.0,3.3,0
3446.0,1.59,0.0,3.3,0
3448.0,1.63,0.0,0.0,0
3450.0,1.66,0.0,0.0,0
3452.0,1.69,0.0,0.0,0
3454.0,1.72,0.0,3.3,0
3457.0,1.76,0.0,3.3,0
3459.0,1.78,0.0,3.3,0
3461.0,1.81,0.0,3.3,0
3463.0,1.85,0.0,3.3,0
3465.0,1.88,0.0,3.3,0
3467.0,1.92,0.0,3.3,0
3469.0,1.94,0.0,0.0,0
3471.0,1.97,0.0,0.0,0
3473.0,2.0,0.0,0.0,0
3475.0,2.02,0.0,3.3,0
3477.0,2.05,0.0,3.3,0
3479.0,2.08,0.0,3.3,0
3481.0,2.11,0.0,3.3,0
3482.0,2.15,0.0,3.3,0
3484.0,2.16,0.0,3.3,0
3486.0,2.2,0.0,3.3,0
3488.0,2.22,0.0,3.3,0
3490.0,2.24,0.0,3.3,0
3492.0,2.26,0.0,3.3,0
3494.0,2.28,0.0,3.3,0
3496.0,2.3,0.0,3.3,0
3499.0,2.32,0.0,3.3,0
3501.0,2.35,0.0,3.3,0
3503.0,2.38,0.0,3.3,0
3505.0,2.4,0.0,3.3,0
3507.0,2.42,0.0,3.3,0
3509.0,2.45,0.0,3.3,0
3511.0,2.46,0.0,3.3,0
3513.0,2.48,0.0,3.3,0
3515.0,2.49,0.0,3.3,0
3517.0,2.5,0.0,3.3,0
3519.0,2.52,0.0,3.3,0
3521.0,2.54,0.0,3.3,0
3523.0,2.56,0.65,3.3,0
3524.0,2.58,1.58,3.3,0
3526.0,2.61,2.49,3.3,0
3528.0,2.63,3.3,3.3,0
3530.0,2.63,3.3,0.0,0
3532.0,2.64,3.3,0.0,0
3534.0,2.67,3.3,3.3,0
3536.0,2.67,3.3,3.3,0
3538.0,2.68,3.3,3.3,0
3540.0,2.7,3.3,3.3,0
3543.0,2.71,3.3,3.3,0
3545.0,2.74,3.3,3.3,0
3547.0,2.76,3.3,3.3,0
3549.0,2.77,3.3,0.0,0
3551.0,2.78,3.3,0.0,0
3553.0,2.79,3.3,0.0,0
3555.0,2.8,3.3,0.0,0
3557.0,2.81,3.3,3.3,0
3559.0,2.82,3.3,3.3,0
3561.0,2.84,3.3,3.3,0
3563.0,2.84,3.3,3.3,0
3565.0,2.86,3.3,3.3,0
3566.0,2.87,3.3,3.3,0
3568.0,2.88,3.3,0.0,0
3570.0,2.89,3.3,0.0,0
3572.0,2.9,3.3,0.0,0
3574.0,2.91,3.3,0.0,0
3576.0,2.92,3.3,3.3,0
3578.0,2.92,3.3,3.3,0
3580.0,2.93,3.3,3.3,0
3582.0,2.95,3.3,3.3,0
3585.0,2.95,3.3,3.3,0
3587.0,2.97,3.3,3.3,0
3589.0,2.97,3.3,0.0,0
3591.0,2.98,3.3,0.0,0
3593.0,2.98,3.3,0.0,0
3595.0,2.99,3.3,0.0,0
3597.0,3.0,3.3,3.3,0
3599.0,3.0,3.3,3.3,0
3601.0,3.01,3.3,3.3,0
3603.0,3.01,3.3,3.3,0
3605.0,3.02,3.3,3.3,0
3607.0,3.04,3.3,3.3,0
3609.0,3.04,3.3,0.0,0
3610.0,3.05,3.3,0.0,0
3612.0,3.04,3.3,0.0,0
3614.0,3.05,3.3,0.0,0
3616.0,3.05,3.3,3.3,0
3618.0,3.06,3.3,3.3,0
3620.0,3.05,3.3,3.3,0
3622.0,3.07,3.3,3.3,0
3624.0,3.06,3.3,3.3,0
3627.0,3.07,3.3,3.3,0
3629.0,3.09,3.3,0.0,0
3631.0,3.09,3.3,0.0,0
3633.0,3.1,3.3,0.0,0
3635.0,3.11,3.3,0.0,0
3637.0,3.1,3.3,3.3,0
3639.0,3.11,3.3,3.3,0
3641.0,3.11,3.3,3.3,0
3643.0,3.12,3.3,3.3,0
3645.0,3.13,3.3,3.3,0
3647.0,3.14,3.3,3.3,0
3649.0,3.15,3.3,0.0,0
3651.0,3.15,3.3,0.0,0
3652.0,3.16,3.3,0.0,0
3654.0,3.15,3.3,0.0,0
3656.0,3.15,3.3,3.3,0
3658.0,3.16,3.3,3.3,0
3660.0,3.16,3.3,3.3,0
3662.0,3.17,3.3,3.3,0
3664.0,3.18,3.3,3.3,0
3666.0,3.2,3.3,3.3,0
3668.0,3.2,3.3,0.0,0
3671.0,3.2,3.3,0.0,0
3673.0,3.21,3.3,0.0,0
3675.0,3.21,3.3,1.19,0
3677.0,3.2,3.3,3.3,0
3679.0,3.2,3.3,3.3,0
3681.0,3.19,3.3,3.3,0
3683.0,3.2,3.3,3.3,0
3685.0,3.22,3.3,3.3,0
3687.0,3.22,3.3,3.3,0
3689.0,3.22,3.3,0.0,0
3691.0,3.21,3.3,0.0,0
3693.0,3.21,3.3,0.0,0
3694.0,3.22,3.3,0.0,0
3696.0,3.21,3.3,3.3,0
3698.0,3.22,3.3,3.3,0
3700.0,3.22,3.3,3.3,0
3702.0,3.23,3.3,3.3,0
3704.0,3.24,3.3,3.3,0
3706.0,3.24,3.3,3.3,0
3708.0,3.23,3.3,0.0,0
3710.0,3.24,3.3,0.0,0
3713.0,3.23,3.3,0.0,0
3715.0,3.24,3.3,0.0,0
3717.0,3.23,3.3,3.3,0
3719.0,3.23,3.3,3.3,0
3721.0,3.23,3.3,3.3,0
3723.0,3.25,3.3,3.3,0
3725.0,3.25,3.3,3.3,0
3727.0,3.27,3.3,3.3,0
3729.0,3.26,3.3,0.0,0
3731.0,3.27,3.3,0.0,0
3733.0,3.27,3.3,0.0,0
3735.0,3.27,3.3,0.0,0
3737.0,3.28,3.3,0.0,0
3738.0,3.28,3.3,0.0,0
3740.0,3.28,3.3,0.0,0
3742.0,3.29,3.3,0.0,0
3744.0,3.29,3.3,0.0,0
3746.0,3.3,3.3,0.0,0
3748.0,3.3,3.3,0.0,0
3750.0,3.3,3.3,0.0,0
3752.0,3.3,3.3,0.0,0
3755.0,3.3,3.3,0.0,0
3757.0,3.3,3.3,0.0,0
3759.0,3.3,3.3,0.0,0
3761.0,3.3,3.3,0.0,0
3763.0,3.3,3.3,0.0,0
3765.0,3.3,3.3,0.0,0
3767.0,3.3,3.3,0.0,0
3769.0,3.3,3.3,0.0,0
3771.0,3.3,3.3,0.0,0
3773.0,3.3,3.3,0.0,0
3775.0,3.3,3.3,0.0,0
3777.0,3.3,3.3,0.0,0
3779.0,3.3,3.3,0.0,0
3780.0,3.3,3.3,0.0,0
3782.0,3.3,3.3,0.0,0
3784.0,3.3,3.3,0.0,0
3786.0,3.3,3.3,0.0,0
3788.0,3.3,3.3,0.0,0
3790.0,3.3,3.3,0.0,0
3792.0,3.3,3.3,0.0,0
3794.0,3.3,3.3,0.0,0
3796.0,3.3,3.3,0.0,0
3799.0,3.3,3.3,0.0,0
3801.0,3.3,3.3,0.0,0
3803.0,3.3,3.3,0.0,0
3805.0,3.3,3.3,0.0,0
3807.0,3.3,3.3,0.0,0
3809.0,3.3,3.3,0.0,0
3811.0,3.3,3.3,0.0,0
3813.0,3.3,3.3,0.0,0
3815.0,3.3,3.3,0.0,0
3817.0,3.3,3.3,0.0,0
3819.0,3.3,3.3,0.0,0
3821.0,3.3,3.3,0.0,0
3822.0,3.3,3.3,0.0,0
3824.0,3.3,3.3,0.0,0
3826.0,3.3,3.3,0.0,0
3828.0,3.3,3.3,0.0,0
3830.0,3.3,3.3,0.0,0
3832.0,3.3,3.3,0.0,0
3834.0,3.3,3.3,0.0,0
3836.0,3.3,3.3,0.0,0
3838.0,3.3,3.3,0.0,0
3841.0,3.3,3.3,0.0,0
3843.0,3.3,3.3,0.0,0
3845.0,3.3,3.3,0.0,0
3847.0,3.3,3.3,0.0,0
3849.0,3.3,3.3,0.0,0
3851.0,3.3,3.3,0.0,0
3853.0,3.3,3.3,0.0,0
3855.0,3.3,3.3,0.0,0
3857.0,3.3,3.3,0.0,0
3859.0,3.3,3.3,0.0,0
3861.0,3.3,3.3,0.0,0
3863.0,3.3,3.3,0.0,0
3865.0,3.3,3.3,0.0,0
3866.0,3.3,3.3,0.0,0
3868.0,3.3,3.3,0.0,0
3870.0,3.3,3.3,0.0,0
3872.0,3.3,3.3,0.0,0
3874.0,3.3,3.3,0.0,0
3876.0,3.3,3.3,0.0,0
3878.0,3.3,3.3,0.0,0
3880.0,3.3,3.3,0.0,0
3883.0,3.3,3.3,0.0,0
3885.0,3.3,3.3,0.0,0
3887.0,3.3,3.3,0.0,0
3889.0,3.3,3.3,0.0,0
3891.0,3.3,3.3,0.0,0
3893.0,3.3,3.3,0.0,0
3895.0,3.3,3.3,0.0,0
3897.0,3.3,3.3,0.0,0
3899.0,3.3,3.3,0.0,0
3901.0,3.3,3.3,0.0,0
3903.0,3.3,3.3,0.0,0
3905.0,3.3,3.3,0.0,0
3907.0,3.3,3.3,3.3,0
3908.0,3.3,3.3,3.3,0
3910.0,3.3,3.3,3.3,0
3912.0,3.3,3.3,3.3,0
3914.0,3.3,3.3,3.3,0
3916.0,3.3,3.3,3.3,0
3918.0,3.3,3.3,3.3,0
3920.0,3.3,3.3,3.3,0
3922.0,3.3,3.3,3.3,0
3924.0,3.3,3.3,3.3,0
3927.0,3.3,3.3,3.3,0
3929.0,3.3,3.3,3.3,0
3931.0,3.3,3.3,3.3,0
3933.0,3.3,3.3,3.3,0
3935.0,3.3,3.3,3.3,0
3937.0,3.3,3.3,3.3,0
3939.0,3.3,3.3,3.3,0
3941.0,3.3,3.3,3.3,0
3943.0,3.3,3.3,3.3,0
3945.0,3.3,3.3,3.3,0
3947.0,3.3,3.3,3.3,0
3949.0,3.3,3.3,0.0,0
3950.0,3.3,3.3,0.0,0
3952.0,3.3,3.3,3.3,0
3954.0,3.3,3.3,3.3,0
3956.0,3.3,3.3,3.3,0
3958.0,3.3,3.3,3.3,0
3960.0,3.3,3.3,3.3,0
3962.0,3.3,3.3,3.3,0
3964.0,3.3,3.3,3.3,0
3966.0,3.3,3.3,3.3,0
3969.0,3.3,3.3,0.0,0
3971.0,3.3,3.3,0.0,0
3973.0,3.3,3.3,0.0,0
3975.0,3.3,3.3,3.3,0
3977.0,3.3,3.3,3.3,0
3979.0,3.3,3.3,3.3,0
3981.0,3.3,0.0,3.3,0
3983.0,3.3,0.0,3.3,0
3985.0,3.3,0.0,3.3,0
3987.0,3.3,0.0,3.3,0
3989.0,3.3,0.0,0.0,0
3991.0,3.3,0.0,0.0,0
3993.0,3.3,0.0,0.0,0
3994.0,3.3,0.0,3.3,0
3996.0,3.3,0.0,3.3,0
3998.0,3.01,0.0,3.3,0
4000.0,2.96,0.0,3.3,0
4002.0,3.0,0.0,3.3,0
4004.0,3.02,0.0,3.3,0
4006.0,2.99,0.0,0.0,0
4008.0,2.94,0.0,0.0,0
4011.0,2.94,0.0,0.0,0
4013.0,2.99,0.0,0.0,0
4015.0,3.05,0.0,3.3,0
4017.0,3.11,0.0,3.3,0
4019.0,3.17,0.0,3.3,0
4021.0,3.27,0.0,3.3,0
4023.0,3.3,0.0,3.3,0
4025.0,3.28,0.0,3.3,0
4027.0,3.21,0.0,0.0,0
4029.0,3.17,0.0,0.0,0
4031.0,3.18,0.0,0.0,0
4033.0,3.23,0.0,0.0,0
4035.0,3.27,0.0,3.28,0
4036.0,3.3,0.0,3.3,0
4038.0,3.3,0.0,3.3,0
4040.0,3.3,0.0,3.3,0
4042.0,3.3,0.0,3.3,0
4044.0,3.3,0.0,3.3,0
4046.0,3.3,0.0,0.0,0
4048.0,3.28,0.0,0.0,0
4050.0,3.29,0.0,0.0,0
4052.0,3.3,0.0,0.0,0
4055.0,3.3,0.0,0.0,0
4057.0,3.3,0.0,3.3,0
4059.0,3.3,0.0,3.3,0
4061.0,3.3,0.0,3.3,0
4063.0,3.3,0.0,3.3,0
4065.0,3.3,0.0,3.3,0
4067.0,3.3,0.0,0.0,0
4069.0,3.3,0.0,0.0,0
4071.0,0.05,0.0,0.0,0
4073.0,0.0,0.0,3.3,0
4075.0,0.0,0.0,3.3,0
4077.0,0.0,0.0,3.3,0
4078.0,0.0,0.0,3.3,0
4080.0,0.0,0.0,3.3,0
4082.0,0.0,0.0,3.3,0
4084.0,0.0,0.0,3.3,0
4086.0,0.0,0.0,3.3,0
4088.0,0.0,0.0,3.3,0
4090.0,0.0,0.0,3.3,0
4092.0,0.0,0.0,3.3,0
4094.0,0.0,0.0,3.3,0
4097.0,0.0,0.0,3.3,0
4099.0,0.0,0.0,3.3,0
4101.0,0.0,0.0,3.3,0
4103.0,0.0,0.0,3.3,0
4105.0,0.0,0.0,3.3,0
4107.0,0.0,0.0,3.3,0
4109.0,0.0,0.0,3.3,0
4111.0,0.0,0.0,3.3,0
4113.0,0.0,0.0,3.3,0
4115.0,0.0,0.0,3.3,0
4117.0,0.0,0.0,3.3,0
4119.0,0.0,0.0,3.3,0
4121.0,0.0,0.0,3.3,0
4122.0,0.0,0.0,3.3,0
4124.0,0.0,0.0,3.3,0
4126.0,0.0,0.0,3.3,0
4128.0,0.0,0.0,3.3,0
4130.0,0.0,0.0,3.3,0
4132.0,0.0,0.0,3.3,0
4134.0,0.0,0.0,3.3,0
4136.0,0.0,0.0,3.3,0
4139.0,0.0,0.0,3.3,0
4141.0,0.0,0.0,3.3,0
4143.0,0.0,0.0,3.3,0
4145.0,0.0,0.0,3.3,0
4147.0,0.0,0.0,3.3,0
4149.0,0.0,0.0,3.3,0
4151.0,0.0,0.0,3.3,0
4153.0,0.0,0.0,3.3,0
4155.0,0.0,0.0,3.3,0
4157.0,0.0,0.0,3.3,0
4159.0,0.0,0.0,3.3,0
4161.0,0.0,0.0,3.3,0
4163.0,0.0,0.0,3.3,0
4164.0,3.3,0.0,3.3,0
4166.0,3.3,0.0,3.3,0
4168.0,0.0,0.0,3.3,0
4170.0,0.0,0.0,3.3,0
4172.0,0.0,0.0,3.3,0
4174.0,0.0,0.0,3.3,0
4176.0,0.0,0.0,3.3,0
4178.0,0.0,0.0,3.3,0
4180.0,0.0,0.0,3.3,0
4183.0,0.0,0.0,3.3,0
4185.0,0.0,0.0,3.3,0
4187.0,0.0,0.0,3.3,0
4189.0,0.0,0.0,3.3,0
4191.0,0.0,0.0,3.3,0
4193.0,0.0,0.0,3.3,0
4195.0,0.0,0.0,3.3,0
4197.0,0.0,0.0,3.3,0
4199.0,0.0,0.0,3.3,0
4201.0,0.0,0.0,3.3,0
4203.0,3.3,0.0,3.3,0
4205.0,3.3,0.0,3.3,0
4207.0,3.3,0.0,3.3,0
4208.0,3.3,0.0,3.3,0
4210.0,3.21,0.0,3.3,0
4212.0,0.0,0.0,3.3,0
4214.0,0.0,0.0,3.3,0
4216.0,0.0,0.0,3.3,0
4218.0,0.0,0.0,3.3,0
4220.0,0.0,0.0,0.09,0
4222.0,0.0,0.0,3.3,0
4225.0,0.0,0.0,3.3,0
4227.0,0.0,0.0,3.3,0
4229.0,0.0,0.0,3.3,0
4231.0,0.0,0.0,3.3,0
4233.0,0.0,0.0,3.3,0
4235.0,0.0,0.0,3.3,0
4237.0,0.0,0.0,2.88,0
4239.0,0.0,0.0,0.0,0
4241.0,0.0,0.0,0.0,0
4243.0,0.0,0.0,0.54,0
4245.0,0.0,0.0,3.3,0
4247.0,0.0,0.0,3.3,0
4249.0,0.0,0.0,3.3,0
4250.0,0.0,0.0,3.3,0
4252.0,0.0,0.0,1.02,0
4254.0,0.0,0.0,0.0,0
4256.0,0.0,0.0,0.0,0
4258.0,0.0,0.0,0.0,0
4260.0,0.0,0.0,0.0,0
4262.0,0.0,0.0,0.0,0
4264.0,0.0,0.0,0.35,0
4267.0,0.0,0.0,3.3,0
4269.0,0.0,0.0,3.3,0
4271.0,0.0,0.0,0.17,0
4273.0,0.0,0.0,0.0,0
4275.0,3.3,0.0,0.0,0
4277.0,3.3,0.0,0.0,0
4279.0,3.3,0.0,0.0,0
4281.0,3.3,0.0,0.0,0
4283.0,3.3,0.0,0.0,0
4285.0,3.3,3.3,0.0,0
4287.0,3.3,3.3,3.3,0
4289.0,3.3,3.3,3.3,0
4291.0,3.3,3.3,0.0,0
4292.0,3.3,3.3,0.0,0
4294.0,3.3,3.3,0.0,0
4296.0,3.3,3.3,0.0,0
4298.0,3.3,3.3,0.0,0
4300.0,3.3,3.3,0.0,0
4302.0,3.3,3.3,0.0,0
4304.0,3.3,3.3,2.04,0
4306.0,3.3,3.3,3.3,0
4308.0,3.3,3.3,3.3,0
4311.0,3.3,3.3,3.3,0
4313.0,3.3,3.3,0.0,0
4315.0,3.3,3.3,0.0,0
4317.0,3.3,3.3,0.0,0
4319.0,3.3,3.3,0.0,0
4321.0,3.3,3.3,0.0,0
4323.0,3.3,3.3,0.0,0
4325.0,3.3,3.3,2.22,0
4327.0,3.3,3.3,3.3,0
4329.0,3.3,3.3,3.3,0
4331.0,3.3,3.3,3.3,0
4333.0,3.3,3.3,0.0,0
4335.0,3.3,3.3,0.0,0
4336.0,3.3,3.3,0.0,0
4338.0,3.3,3.3,0.0,0
4340.0,3.3,3.3,0.0,0
4342.0,3.3,3.3,0.0,0
4344.0,3.3,3.3,3.3,0
4346.0,3.3,3.3,3.3,0
4348.0,3.3,3.3,3.3,0
4350.0,3.3,3.3,3.3,0
4353.0,3.3,3.3,0.0,0
4355.0,3.3,3.3,0.0,0
4357.0,3.3,3.3,0.0,0
4359.0,3.3,3.3,0.0,0
4361.0,3.3,3.3,0.0,0
4363.0,3.3,3.3,0.0,0
4365.0,3.3,3.3,0.4,0
4367.0,3.3,3.3,3.3,0
4369.0,3.3,3.3,3.3,0
4371.0,3.3,3.3,0.0,0
4373.0,3.3,3.3,0.0,0
4375.0,3.3,3.3,0.0,0
4377.0,3.3,0.0,0.0,0
4378.0,3.3,0.0,0.0,0
4380.0,3.3,0.0,0.0,0
4382.0,3.3,0.0,0.0,0
4384.0,3.3,0.0,0.96,0
4386.0,3.3,0.34,3.3,0
4388.0,3.3,3.3,3.3,0
4390.0,3.3,0.0,3.3,0
4392.0,3.3,0.0,0.14,0
4395.0,3.3,0.0,0.0,0
4397.0,3.3,0.0,0.0,0
4399.0,3.3,0.0,0.0,0
4401.0,3.3,0.0,0.0,0
4403.0,3.3,0.0,2.38,0
4405.0,3.3,0.0,3.3,0
4407.0,3.3,0.0,3.3,0
4409.0,3.3,0.0,3.3,0
4411.0,3.3,0.0,3.3,0
4413.0,3.3,0.0,3.3,0
4415.0,3.3,0.0,3.3,0
4417.0,3.3,0.0,1.28,0
4419.0,3.3,0.0,0.0,0
4420.0,3.3,0.0,0.0,0
4422.0,3.3,0.0,3.3,0
4424.0,3.3,0.0,3.3,0
4426.0,3.3,0.0,3.3,0
4428.0,3.3,0.0,3.3,0
4430.0,3.3,0.0,3.3,0
4432.0,3.3,0.0,3.3,0
4434.0,3.3,0.0,3.3,0
4436.0,3.3,0.0,0.33,0
4439.0,3.3,0.0,0.0,0
4441.0,3.3,0.0,0.0,0
4443.0,3.3,0.0,2.36,0
4445.0,3.3,1.2,3.3,0
4447.0,3.3,3.3,3.3,0
4449.0,3.3,3.3,3.3,0
4451.0,3.3,3.3,3.3,0
4453.0,3.3,3.3,3.3,0
4455.0,3.3,3.3,2.9,0
4457.0,3.3,3.3,0.0,0
4459.0,3.3,3.3,0.0,0
4461.0,3.3,3.3,0.0,0
4463.0,3.3,3.3,1.01,0
4464.0,0.0,3.3,3.3,0
4466.0,0.0,3.3,3.3,0
4468.0,0.0,3.3,3.3,0
4470.0,0.0,3.3,3.3,0
4472.0,0.0,3.3,3.26,0
4474.0,0.0,3.3,0.0,0
4476.0,0.0,3.3,0.0,0
4478.0,0.0,3.3,0.0,0
4481.0,0.0,3.3,0.0,0
4483.0,0.0,3.3,0.0,0
4485.0,0.0,3.3,3.3,0
4487.0,0.0,3.3,3.3,0
4489.0,0.0,3.3,3.3,0
4491.0,0.0,3.3,3.3,0
4493.0,0.0,3.3,3.3,0
4495.0,0.0,3.3,1.76,0
4497.0,0.0,3.3,0.0,0
4499.0,3.3,3.3,0.0,0
4501.0,3.3,3.3,0.0,0
4503.0,3.3,3.3,0.0,0
4505.0,0.0,3.3,3.3,0
4506.0,0.0,3.3,3.3,0
4508.0,0.0,3.3,3.3,0
4510.0,0.0,3.3,3.3,0
4512.0,0.0,3.3,2.65,0
4514.0,0.0,3.3,0.0,0
4516.0,0.0,3.3,0.0,0
4518.0,0.0,3.3,0.0,0
4520.0,0.0,3.3,0.0,0
4523.0,0.0,3.3,0.0,0
4525.0,0.0,3.3,3.3,0
4527.0,0.0,3.3,3.3,0
4529.0,0.0,3.3,3.3,0
4531.0,0.0,3.3,3.3,0
4533.0,0.0,3.3,3.3,0
4535.0,0.0,3.3,0.0,0
4537.0,0.0,3.3,0.0,0
4539.0,0.0,3.3,0.0,0
4541.0,0.0,3.3,0.0,0
4543.0,0.0,3.3,0.0,0
4545.0,0.0,3.3,3.3,0
4547.0,0.0,0.0,3.3,0
4548.0,0.0,0.0,3.3,0
4550.0,0.0,3.3,3.3,0
4552.0,0.0,3.3,0.04,0
4554.0,0.0,3.3,0.0,0
4556.0,0.0,3.3,0.0,0
4558.0,0.0,3.3,0.0,0
4560.0,0.0,3.3,0.0,0
4562.0,0.0,3.3,0.0,0
4564.0,0.0,3.3,3.3,0
4567.0,0.0,0.0,3.3,0
4569.0,0.0,0.0,3.3,0
4571.0,0.0,3.3,3.3,0
4573.0,0.0,3.3,2.25,0
4575.0,0.0,3.3,0.0,0
4577.0,0.0,3.3,0.0,0
4579.0,0.0,3.3,0.0,0
4581.0,0.0,3.3,0.0,0
4583.0,0.0,3.3,0.0,0
4585.0,0.0,3.3,3.3,0
4587.0,0.0,0.0,3.3,0
4589.0,0.0,0.0,3.3,0
4591.0,0.0,3.3,3.3,0
4592.0,0.0,3.3,1.34,0
4594.0,0.0,3.3,0.0,0
4596.0,0.0,3.3,0.0,0
4598.0,0.0,3.3,0.0,0
4600.0,0.0,3.3,0.0,0
4602.0,0.0,3.3,0.0,0
4604.0,0.0,3.3,0.72,0
4606.0,0.0,0.0,3.3,0
4609.0,0.0,0.0,3.3,0
4611.0,0.0,0.0,0.0,0
4613.0,0.0,3.3,0.0,0
4615.0,0.0,3.3,0.0,0
4617.0,0.0,3.3,0.0,0
4619.0,0.0,3.3,0.0,0
4621.0,0.0,3.3,0.0,0
4623.0,0.0,3.3,0.0,0
4625.0,0.0,3.3,3.3,0
4627.0,0.0,0.0,3.3,0
4629.0,0.0,0.0,3.3,0
4631.0,0.0,0.0,3.3,0
4633.0,0.0,3.3,0.65,0
4634.0,0.0,3.3,0.0,0
4636.0,0.0,3.3,0.0,0
4638.0,0.0,3.3,0.0,0
4640.0,0.0,3.3,0.0,0
4642.0,0.0,3.3,0.0,0
4644.0,0.0,3.3,3.3,0
4646.0,0.0,3.3,3.3,0
4648.0,0.0,3.3,3.3,0
4651.0,0.0,3.3,3.3,0
4653.0,0.0,3.3,2.37,0
4655.0,0.0,3.3,0.0,0
4657.0,0.0,3.3,0.0,0
4659.0,0.0,3.3,0.0,0
4661.0,0.0,3.3,0.0,0
4663.0,0.0,3.3,0.0,0
4665.0,0.0,3.3,0.0,0
4667.0,0.0,3.3,0.0,0
4669.0,0.0,3.3,0.0,0
4671.0,0.0,3.3,0.0,0
4673.0,0.0,3.3,0.0,0
4675.0,0.0,3.3,0.0,0
4676.0,0.0,3.3,3.3,0
4678.0,0.0,3.3,3.3,0
4680.0,0.0,3.3,3.3,0
4682.0,0.0,3.3,0.0,0
4684.0,0.0,3.3,0.0,0
4686.0,0.0,3.3,0.0,0
4688.0,0.0,3.3,0.0,0
4690.0,0.0,3.3,0.0,0
4692.0,0.0,3.3,0.0,0
4695.0,0.0,3.3,0.0,0
4697.0,0.0,3.3,3.3,0
4699.0,0.0,3.3,3.3,0
4701.0,0.0,3.3,3.3,0
4703.0,0.0,3.3,3.3,0
4705.0,0.0,3.3,0.0,0
4707.0,0.0,3.3,0.0,0
4709.0,0.0,3.3,0.0,0
4711.0,0.0,3.3,0.0,0
4713.0,0.0,3.3,0.0,0
4715.0,0.0,3.3,0.0,0
4717.0,0.0,3.3,3.3,0
4719.0,0.0,3.3,3.3,0
4720.0,0.0,3.3,3.3,0
4722.0,0.0,3.3,3.3,0
4724.0,0.0,3.3,0.0,0
4726.0,0.0,3.3,0.0,0
4728.0,0.0,3.3,0.0,0
4730.0,0.0,3.3,0.0,0
4732.0,0.0,3.3,0.0,0
4734.0,0.0,3.3,0.0,0
4737.0,0.0,3.3,3.3,0
4739.0,0.0,3.3,3.3,0
4741.0,0.0,3.3,3.3,0
4743.0,0.0,3.3,3.3,0
4745.0,0.0,3.3,0.0,0
4747.0,0.0,3.3,0.0,0
4749.0,0.0,3.3,0.0,0
4751.0,0.0,3.3,0.0,0
4753.0,0.0,3.3,0.0,0
4755.0,0.0,3.3,0.0,0
4757.0,0.0,3.3,3.3,0
4759.0,0.0,3.3,3.3,0
4761.0,0.0,3.3,3.3,0
4762.0,0.0,3.3,3.3,0
4764.0,0.0,3.3,0.0,0
4766.0,0.0,3.3,0.0,0
4768.0,0.0,3.3,0.0,0
4770.0,0.0,3.3,0.0,0
4772.0,0.0,3.3,0.0,0
4774.0,0.0,3.3,3.3,0
4776.0,0.0,3.3,3.3,0
4779.0,0.0,3.3,3.3,0
4781.0,0.0,3.3,3.3,0
4783.0,0.0,3.3,3.3,0
4785.0,0.0,3.3,0.0,0
4787.0,0.0,3.3,3.16,0
4789.0,0.0,3.3,3.3,0
4791.0,0.0,3.3,3.3,0
4793.0,0.0,3.3,3.3,0
4795.0,0.0,3.3,3.3,0
4797.0,0.0,3.3,3.3,0
4799.0,0.0,3.3,3.3,0
4801.0,0.0,3.3,3.3,0
4803.0,0.0,3.3,3.3,0
4804.0,0.0,3.3,0.0,0
4806.0,0.0,3.3,0.0,0
4808.0,0.0,3.3,3.3,0
4810.0,0.0,3.3,3.3,0
4812.0,0.0,3.3,3.3,0
4814.0,0.0,3.3,3.3,0
4816.0,0.0,3.3,3.3,0
4818.0,0.0,3.3,3.3,0
4820.0,0.0,3.3,3.3,0
4823.0,0.0,3.3,3.3,0
4825.0,0.08,3.3,3.3,0
4827.0,1.08,3.3,3.3,0
4829.0,2.19,3.3,3.3,0
4831.0,3.26,3.3,3.3,0
4833.0,3.3,3.3,3.3,0
4835.0,3.3,3.3,3.3,0
4837.0,3.3,3.3,3.3,0
4839.0,3.3,3.3,3.3,0
4841.0,3.3,3.3,3.3,0
4843.0,3.3,3.3,3.3,0
4845.0,3.3,3.3,3.3,0
4847.0,3.3,3.3,3.3,0
4848.0,3.3,3.3,3.3,0
4850.0,3.3,3.3,3.3,0
4852.0,3.3,3.3,3.3,0
4854.0,3.3,3.3,3.3,0
4856.0,3.3,3.3,3.3,0
4858.0,3.3,3.3,3.3,0
4860.0,3.3,3.3,3.3,0
4862.0,3.3,3.3,3.3,0
4865.0,3.3,3.3,3.3,0
4867.0,3.3,3.3,3.3,0
4869.0,3.3,3.3,3.3,0
4871.0,3.3,3.3,3.3,0
4873.0,3.3,3.3,3.3,0
4875.0,3.3,3.3,3.3,0
4877.0,3.3,3.3,3.3,0
4879.0,3.3,3.3,3.3,0
4881.0,3.3,3.3,3.3,0
4883.0,3.3,3.3,3.3,0
4885.0,3.3,3.3,3.3,0
4887.0,3.3,3.3,3.3,0
4889.0,3.3,3.3,3.3,0
4890.0,3.3,3.3,3.3,0
4892.0,3.3,3.3,3.3,0
4894.0,3.3,3.3,3.3,0
4896.0,3.3,3.3,3.3,0
4898.0,3.3,3.3,3.3,0
4900.0,3.3,3.3,3.3,0
4902.0,3.3,3.3,3.3,0
4904.0,3.3,3.3,3.3,0
4907.0,3.3,3.3,3.3,0
4909.0,3.3,3.3,3.3,0
4911.0,3.3,3.3,3.3,0
4913.0,3.3,3.3,3.3,0
4915.0,3.3,3.3,3.3,0
4917.0,3.3,3.3,3.3,0
4919.0,3.3,3.3,3.3,0
4921.0,3.3,3.3,2.4,0
4923.0,3.3,3.3,0.0,0
4925.0,3.3,3.3,3.3,0
4927.0,3.3,3.3,3.3,0
4929.0,3.3,3.3,3.3,0
4931.0,3.3,3.3,3.3,0
4932.0,3.3,3.3,0.41,0
4934.0,3.3,3.3,0.0,0
4936.0,3.3,3.3,0.0,0
4938.0,3.3,3.3,0.0,0
4940.0,3.3,3.3,0.0,0
4942.0,3.3,3.3,0.0,0
4944.0,3.3,3.3,0.0,0
4946.0,3.3,3.3,0.0,0
4948.0,3.3,3.3,0.0,0
4951.0,3.3,3.3,0.0,0
4953.0,3.3,3.3,0.0,0
4955.0,3.3,3.3,0.0,0
4957.0,3.3,3.3,0.0,0
4959.0,3.3,3.3,0.0,0
4961.0,3.3,3.3,0.0,0
4963.0,3.3,3.3,0.0,0
4965.0,3.3,3.3,0.0,0
4967.0,3.3,3.03,3.3,0
4969.0,3.3,1.96,0.26,0
4971.0,3.3,0.98,0.0,0
4973.0,3.3,0.07,0.0,0
4975.0,3.3,0.0,0.0,0
4976.0,3.3,0.0,0.0,0
4978.0,3.3,0.0,0.0,0
4980.0,3.3,0.0,0.0,0
4982.0,3.3,0.0,0.0,0
4984.0,3.3,0.0,0.92,0
4986.0,3.3,0.0,3.3,0
4988.0,3.3,0.0,2.92,0
4990.0,3.3,0.0,0.0,0
4993.0,3.3,0.0,0.0,0
4995.0,3.3,0.0,0.0,0
4997.0,3.3,0.0,0.0,0
4999.0,3.3,0.0,0.0,0
5001.0,3.3,0.0,0.0,0
5003.0,3.3,0.0,0.0,0
5005.0,3.3,0.0,1.17,0
5007.0,3.3,0.0,3.3,0
5009.0,3.3,0.0,3.3,0
5011.0,3.3,0.0,0.48,0
5013.0,3.3,0.0,0.0,0
5015.0,3.3,0.0,0.0,0
5017.0,3.3,0.0,0.0,0
5018.0,3.3,0.0,0.0,0
5020.0,3.3,0.0,0.0,0
5022.0,3.3,0.0,0.0,0
5024.0,3.3,0.0,1.87,0
5026.0,3.3,0.0,3.3,0
5028.0,3.3,0.0,3.3,0
5030.0,3.3,0.0,2.58,0
5032.0,3.3,0.0,0.28,0
5035.0,3.3,0.0,0.0,0
5037.0,3.3,0.0,0.0,0
5039.0,3.3,0.0,0.0,0
5041.0,3.3,0.0,0.0,0
5043.0,3.3,0.0,0.0,0
5045.0,3.3,0.0,1.6,0
5047.0,3.3,0.0,3.3,0
5049.0,3.3,0.0,3.3,0
5051.0,3.3,0.0,3.13,0
5053.0,3.3,0.0,1.15,0
5055.0,3.3,0.0,0.0,0
5057.0,3.3,0.0,0.0,0
5059.0,3.3,0.0,0.0,0
5061.0,3.3,0.0,0.0,0
5062.0,3.3,0.0,0.0,0
5064.0,3.3,0.0,2.18,0
5066.0,3.3,0.0,3.3,0
5068.0,3.3,0.0,3.3,0
5070.0,3.3,0.0,3.3,0
5072.0,3.3,0.0,1.76,0
5074.0,3.3,0.0,0.0,0
5076.0,3.3,0.0,0.0,0
5079.0,3.3,0.0,0.0,0
5081.0,3.3,0.0,0.0,0
5083.0,3.3,0.0,0.0,0
5085.0,3.3,0.0,2.77,0
5087.0,3.3,0.0,3.3,0
5089.0,3.3,0.0,3.3,0
5091.0,3.3,0.0,3.3,0
5093.0,3.3,0.0,3.3,0
5095.0,3.3,0.0,3.3,0
5097.0,3.3,0.0,2.92,0
5099.0,3.3,0.0,0.0,0
5101.0,3.3,0.0,0.0,0
5103.0,3.3,0.0,0.0,0
5104.0,3.3,0.0,0.0,0
5106.0,3.3,0.0,3.3,0
5108.0,3.3,0.0,3.3,0
5110.0,3.3,0.0,3.3,0
5112.0,3.3,0.0,3.3,0
5114.0,3.3,0.0,3.3,0
5116.0,3.3,0.0,3.3,0
5118.0,3.3,0.0,3.3,0
5121.0,3.3,0.0,1.1,0
5123.0,3.3,0.0,0.0,0
5125.0,3.3,0.0,1.32,0
5127.0,3.3,0.0,3.3,0
5129.0,3.3,0.0,3.3,0
5131.0,3.3,0.0,3.3,0
5133.0,3.3,0.0,3.3,0
5135.0,3.3,0.0,3.3,0
5137.0,3.3,0.0,3.3,0
5139.0,3.3,0.0,3.3,0
5141.0,3.3,0.0,0.0,0
5143.0,3.3,0.0,0.0,0
5145.0,3.3,0.0,0.0,0
5146.0,3.3,0.0,3.3,0
5148.0,3.3,0.0,3.3,0
5150.0,3.3,0.0,3.3,0
5152.0,3.3,0.0,3.3,0
5154.0,3.3,0.0,3.3,0
5156.0,3.3,0.0,3.3,0
5158.0,3.3,0.0,3.3,0
5160.0,3.3,0.0,0.0,0
5163.0,3.3,0.0,0.0,0
5165.0,3.3,0.0,0.0,0
5167.0,3.3,0.0,3.18,0
5169.0,3.3,0.0,3.3,0
5171.0,3.3,0.0,3.3,0
5173.0,3.3,0.0,3.3,0
5175.0,3.3,0.0,3.3,0
5177.0,3.3,0.0,3.3,0
5179.0,3.3,0.0,0.0,0
5181.0,3.3,0.0,0.0,0
5183.0,3.3,0.0,0.0,0
5185.0,3.3,0.0,0.0,0
5187.0,3.3,0.0,0.0,0
5189.0,3.3,0.0,0.0,0
5190.0,3.3,0.0,0.0,0
5192.0,3.3,0.0,0.0,0
5194.0,3.3,0.0,0.0,0
5196.0,3.3,0.0,0.0,0
5198.0,3.3,0.0,0.0,0
5200.0,3.3,0.0,0.0,0
5202.0,3.3,0.0,0.0,0
5204.0,3.3,0.0,0.0,0
5207.0,3.3,0.0,0.0,0
5209.0,3.3,0.0,0.0,0
5211.0,3.3,0.0,0.0,0
5213.0,3.3,0.0,0.0,0
5215.0,3.3,0.0,0.0,0
5217.0,3.3,0.0,0.0,0
5219.0,3.3,0.0,0.0,0
5221.0,3.3,0.0,0.0,0
5223.0,3.3,0.0,0.0,0
5225.0,3.3,0.0,0.0,0
5227.0,3.3,0.0,1.37,0
5229.0,3.3,0.0,3.08,0
5231.0,3.3,0.0,3.3,0
5232.0,3.3,0.0,0.82,0
5234.0,3.3,0.0,1.87,0
5236.0,3.3,0.0,0.93,0
5238.0,3.3,0.0,0.0,0
5240.0,3.3,0.0,0.0,0
5242.0,3.3,0.0,0.0,0
5244.0,3.3,0.0,0.0,0
5246.0,3.3,0.0,1.39,0
5249.0,3.3,0.0,1.93,0
5251.0,3.3,0.0,0.0,0
5253.0,3.3,0.0,0.0,0
5255.0,3.3,0.0,0.0,0
5257.0,3.3,0.0,0.0,0
5259.0,3.3,0.0,0.0,0
5261.0,3.3,0.0,0.0,0
5263.0,3.3,0.0,0.0,0
5265.0,3.3,0.0,0.0,0
5267.0,3.3,0.0,0.0,0
5269.0,3.3,0.0,0.0,0
5271.0,3.3,0.0,0.0,0
5273.0,3.3,0.0,0.0,0
5274.0,3.3,0.0,0.0,0
5276.0,3.3,0.0,0.0,0
5278.0,3.3,0.0,0.0,0
5280.0,3.3,0.0,0.0,0
5282.0,3.3,0.0,0.0,0
5284.0,3.3,0.0,0.0,0
5286.0,3.3,0.0,3.16,0
5288.0,3.3,0.0,3.3,0
5291.0,3.3,0.0,3.3,0
5293.0,3.3,0.0,1.77,0
5295.0,3.3,0.0,1.83,0
5297.0,3.3,0.0,2.02,0
5299.0,3.3,0.0,0.0,0
5301.0,3.3,0.0,0.0,0
5303.0,3.3,0.0,0.0,0
5305.0,3.3,0.0,0.84,0
5307.0,3.3,0.0,3.3,0
5309.0,3.3,0.0,3.3,0
5311.0,3.3,0.0,3.3,0
5313.0,3.3,0.0,3.3,0
5315.0,3.3,0.0,3.3,0
5317.0,3.3,0.0,2.53,0
5318.0,3.3,0.0,0.0,0
5320.0,3.3,0.0,0.0,0
5322.0,3.3,0.0,1.04,0
5324.0,3.3,0.0,3.3,0
5326.0,3.3,0.0,3.3,0
5328.0,3.3,0.0,3.3,0
5330.0,3.3,0.0,3.3,0
5332.0,3.3,0.0,3.3,0
5335.0,3.3,0.0,0.0,0
5337.0,3.3,0.0,0.0,0
5339.0,3.3,0.0,0.0,0
5341.0,3.3,0.0,0.0,0
5343.0,3.3,0.0,0.0,0
5345.0,3.3,0.0,3.3,0
5347.0,3.3,0.0,3.3,0
5349.0,3.3,0.0,0.0,0
5351.0,3.3,0.0,0.0,0
5353.0,3.3,0.0,0.0,0
5355.0,3.3,0.0,0.0,0
5357.0,0.0,0.0,0.0,0
5359.0,0.0,0.0,0.0,0
5360.0,3.3,0.0,0.0,0
5362.0,3.3,0.0,0.0,0
5364.0,3.3,0.0,3.3,0
5366.0,3.3,0.0,2.85,0
5368.0,3.3,0.0,0.0,0
5370.0,3.3,0.0,0.0,0
5372.0,3.3,0.0,0.0,0
5374.0,3.3,0.0,0.0,0
5377.0,3.3,0.0,0.0,0
5379.0,3.3,0.0,0.0,0
5381.0,3.3,0.0,0.0,0
5383.0,3.3,0.0,0.0,0
5385.0,3.3,0.0,2.86,0
5387.0,3.3,0.0,0.93,0
5389.0,3.3,0.0,0.0,0
5391.0,3.3,0.0,0.0,0
5393.0,3.3,0.0,0.0,0
5395.0,3.3,0.0,0.0,0
5397.0,3.3,0.0,0.0,0
5399.0,3.3,0.0,0.0,0
5401.0,3.3,0.0,0.0,0
5402.0,3.3,0.02,0.0,0
5404.0,3.3,0.08,2.68,0
5406.0,3.3,0.15,0.0,0
5408.0,3.3,0.2,0.0,0
5410.0,3.3,0.27,0.0,0
5412.0,3.3,0.33,0.0,0
5414.0,3.3,0.4,0.0,0
5416.0,3.3,0.47,0.0,0
5419.0,3.3,0.53,0.0,0
5421.0,3.3,0.59,0.0,0
5423.0,3.3,0.63,0.0,0
5425.0,3.3,0.68,0.0,0
5427.0,3.3,0.73,0.0,0
5429.0,3.3,0.78,0.0,0
5431.0,3.3,0.85,0.0,0
5433.0,3.3,0.9,0.0,0
5435.0,3.3,0.95,0.0,0
5437.0,3.3,1.0,0.0,0
5439.0,3.3,1.05,0.0,0
5441.0,3.3,1.1,0.0,0
5443.0,3.3,1.14,3.3,0
5445.0,3.3,1.17,3.3,0
5446.0,3.3,1.22,3.3,0
5448.0,3.3,1.26,3.3,0
5450.0,3.3,1.3,3.3,0
5452.0,3.3,1.35,2.34,0
5454.0,3.3,1.39,0.0,0
5456.0,3.3,1.44,0.0,0
5458.0,3.3,1.48,0.0,0
5460.0,3.3,1.51,0.59,0
5463.0,3.3,1.55,3.3,0
5465.0,3.3,1.58,3.3,0
5467.0,3.3,1.61,3.3,0
5469.0,3.3,1.65,3.3,0
5471.0,3.3,1.68,3.3,0
5473.0,3.3,1.71,3.13,0
5475.0,3.3,1.75,0.0,0
5477.0,3.3,1.79,0.0,0
5479.0,3.3,1.82,0.0,0
5481.0,3.3,1.85,3.3,0
5483.0,3.3,1.89,3.3,0
5485.0,3.3,1.91,3.3,0
5487.0,3.3,1.93,3.3,0
5488.0,3.3,1.96,3.3,0
5490.0,3.3,1.99,3.3,0
5492.0,3.3,2.02,3.3,0
5494.0,3.3,2.05,3.3,0
5496.0,3.3,2.08,0.0,0
5498.0,3.3,2.11,0.0,0
5500.0,3.3,2.14,3.3,0
5502.0,3.3,2.16,3.3,0
5505.0,3.3,2.17,3.3,0
5507.0,3.3,2.19,3.3,0
5509.0,3.3,2.21,3.3,0
5511.0,3.3,2.23,3.3,0
5513.0,3.3,2.26,3.3,0
5515.0,3.3,2.28,3.3,0
5517.0,3.3,2.3,3.3,0
5519.0,3.3,2.34,3.3,0
5521.0,3.3,2.35,3.3,0
5523.0,3.3,2.38,3.3,0
5525.0,3.3,2.39,3.3,0
5527.0,3.3,2.4,3.3,0
5529.0,3.3,2.42,3.3,0
5530.0,3.3,2.44,3.3,0
5532.0,3.3,2.46,3.3,0
5534.0,3.3,2.48,3.3,0
5536.0,3.3,2.51,3.3,0
5538.0,3.3,2.53,3.3,0
5540.0,3.3,2.55,0.0,0
5542.0,3.3,2.56,0.0,0
5544.0,3.3,2.57,0.0,0
5547.0,3.3,2.57,0.0,0
5549.0,3.3,2.58,2.63,0
5551.0,3.3,2.6,3.3,0
5553.0,3.3,2.62,3.3,0
5555.0,3.3,2.64,3.3,0
5557.0,3.3,2.64,3.3,0
5559.0,3.3,2.67,3.3,0
5561.0,3.3,2.67,0.0,0
5563.0,3.3,2.68,0.0,0
5565.0,3.3,2.68,0.0,0
5567.0,3.3,2.68,0.0,0
5569.0,3.3,2.69,1.02,0
5571.0,3.3,2.71,3.3,0
5573.0,3.3,2.73,3.3,0
5574.0,3.3,2.74,3.3,0
5576.0,3.3,2.75,3.3,0
5578.0,3.3,2.78,3.3,0
5580.0,3.3,2.79,3.3,0
5582.0,3.3,2.8,3.3,0
5584.0,3.3,2.81,0.0,0
5586.0,3.3,2.82,0.0,0
5588.0,3.3,2.83,3.3,0
5591.0,3.3,2.85,3.3,0
5593.0,3.3,2.87,3.3,0
5595.0,3.3,2.87,3.3,0
5597.0,3.3,2.88,3.3,0
5599.0,3.3,2.92,3.3,0
5601.0,3.3,2.92,3.3,0
5603.0,3.3,2.93,3.3,0
5605.0,3.3,2.94,0.0,0
5607.0,3.3,2.94,0.0,0
5609.0,3.3,2.94,3.3,0
5611.0,3.3,2.96,3.3,0
5613.0,3.3,2.97,3.3,0
5615.0,3.3,2.98,3.3,0
5616.0,3.3,2.99,3.3,0
5618.0,3.3,3.0,3.3,0
5620.0,3.3,3.02,3.3,0
5622.0,3.3,3.03,3.3,0
5624.0,3.3,3.03,0.0,0
5626.0,3.3,3.03,0.0,0
5628.0,3.3,3.04,3.3,0
5630.0,3.3,3.05,3.3,0
5633.0,3.3,3.05,3.3,0
5635.0,3.3,3.06,3.3,0
5637.0,3.3,3.07,3.3,0
5639.0,3.3,3.08,3.3,0
5641.0,3.3,3.08,3.3,0
5643.0,3.3,3.09,3.3,0
5645.0,3.3,3.1,3.3,0
5647.0,3.3,3.09,3.3,0
5649.0,3.3,3.1,3.3,0
5651.0,3.3,3.1,3.3,0
5653.0,3.3,3.1,3.3,0
5655.0,3.3,3.1,3.3,0
5657.0,3.3,3.11,3.3,0
5658.0,3.3,3.12,3.3,0
5660.0,3.3,3.1,3.3,0
5662.0,3.3,3.1,3.3,0
5664.0,3.3,3.09,3.3,0
5666.0,3.3,3.08,3.3,0
5668.0,3.3,3.09,3.3,0
5670.0,3.3,3.1,3.3,0
5672.0,3.3,3.1,3.3,0
5675.0,3.3,3.1,3.3,0
5677.0,3.3,3.11,3.3,0
5679.0,3.3,3.13,3.3,0
5681.0,3.3,3.13,3.3,0
5683.0,3.3,3.13,3.28,0
5685.0,3.3,3.1,2.82,0
5687.0,3.3,3.06,2.38,0
5689.0,3.3,3.01,1.97,0
5691.0,3.3,2.97,1.59,0
5693.0,3.3,2.97,0.0,0
5695.0,3.3,2.98,0.0,0
5697.0,3.3,2.99,0.0,0
5699.0,3.3,3.0,0.0,0
5701.0,3.3,3.04,0.0,0
5702.0,3.3,3.05,0.0,0
5704.0,3.3,3.01,0.0,0
5706.0,3.3,3.02,0.0,0
5708.0,3.3,3.06,0.0,0
5710.0,3.3,3.15,0.0,0
5712.0,3.3,3.19,0.0,0
5714.0,3.3,3.21,0.0,0
5716.0,3.3,3.24,0.0,0
5719.0,3.3,3.25,0.0,0
5721.0,3.3,3.25,0.0,0
5723.0,3.3,3.27,0.0,0
5725.0,3.3,3.26,0.0,0
5727.0,3.3,3.25,0.0,0
5729.0,3.3,3.25,0.0,0
5731.0,3.3,3.25,0.0,0
5733.0,3.3,3.26,0.0,0
5735.0,3.3,3.27,0.0,0
5737.0,3.3,3.27,0.0,0
5739.0,3.3,3.29,0.0,0
5741.0,3.3,3.3,0.0,0
5743.0,3.3,3.3,0.0,0
5744.0,3.3,3.28,0.85,0
5746.0,3.3,3.29,0.49,0
5748.0,3.3,3.28,0.0,0
5750.0,3.3,3.28,0.0,0
5752.0,3.3,3.3,0.0,0
5754.0,3.3,3.3,0.0,0
5756.0,3.3,3.3,0.0,0
5758.0,3.3,3.3,0.0,0
5761.0,3.3,3.3,0.0,0
5763.0,3.3,3.3,0.0,0
5765.0,3.3,3.3,0.91,0
5767.0,2.19,3.3,0.0,0
5769.0,0.95,3.3,0.0,0
5771.0,0.0,3.3,0.0,0
5773.0,0.0,3.3,0.0,0
5775.0,0.0,3.3,0.0,0
5777.0,0.0,3.3,0.0,0
5779.0,0.0,3.3,0.0,0
5781.0,0.0,3.3,0.0,0
5783.0,0.0,3.3,0.0,0
5785.0,0.0,3.3,0.0,0
5787.0,0.0,3.3,0.0,0
5788.0,0.0,3.3,0.0,0
5790.0,0.0,3.3,0.0,0
5792.0,0.0,3.3,0.0,0
5794.0,0.0,3.3,0.0,0
5796.0,0.0,3.3,0.0,0
5798.0,0.0,3.3,0.0,0
5800.0,0.0,3.3,0.0,0
5803.0,0.0,3.3,0.0,0
5805.0,0.0,3.3,0.0,0
5807.0,0.0,3.3,0.0,0
5809.0,0.0,3.3,0.0,0
5811.0,0.0,3.3,0.0,0
5813.0,0.0,3.3,0.0,0
5815.0,0.0,3.3,0.0,0
5817.0,0.0,3.3,0.0,0
5819.0,0.0,3.3,0.0,0
5821.0,0.0,3.3,0.0,0
5823.0,0.0,3.3,0.0,0
5825.0,0.0,3.3,0.0,0
5827.0,0.0,3.3,0.0,0
5829.0,0.0,3.3,0.0,0
5830.0,0.0,3.3,0.0,0
5832.0,0.0,3.3,0.0,0
5834.0,0.0,3.3,0.0,0
5836.0,0.0,3.3,0.0,0
5838.0,0.0,3.3,0.0,0
5840.0,0.0,3.3,0.0,0
5842.0,0.0,3.3,0.0,0
5844.0,0.0,3.3,0.0,0
5847.0,0.0,3.3,0.0,0
5849.0,0.0,3.3,0.0,0
5851.0,0.0,3.3,0.0,0
5853.0,0.0,3.3,0.0,0
5855.0,0.0,3.3,0.0,0
5857.0,0.0,3.3,0.0,0
5859.0,0.0,3.3,0.0,0
5861.0,0.0,3.3,0.0,0
5863.0,0.0,3.3,0.0,0
5865.0,0.0,3.3,0.0,0
5867.0,0.0,3.3,0.0,0
5869.0,0.0,3.3,0.0,0
5871.0,0.0,3.3,0.0,0
5872.0,0.0,3.3,0.0,0
5874.0,0.0,3.3,0.0,0
5876.0,0.0,3.3,0.0,0
5878.0,0.0,3.3,0.0,0
5880.0,0.0,3.3,0.0,0
5882.0,0.0,3.3,0.0,0
5884.0,0.0,3.3,0.0,0
5886.0,0.0,3.3,0.0,0
5889.0,0.0,3.3,0.0,0
5891.0,0.0,3.3,0.0,0
5893.0,0.0,3.3,0.0,0
5895.0,0.0,3.3,0.0,0
5897.0,0.0,3.3,0.0,0
5899.0,0.0,3.3,0.0,0
5901.0,0.0,3.3,0.0,0
5903.0,0.0,3.3,0.0,0
5905.0,0.0,3.3,0.0,0
5907.0,0.0,3.3,0.0,0
5909.0,0.0,3.3,0.0,0
5911.0,0.0,3.3,0.0,0
5913.0,0.0,3.3,0.0,0
5915.0,0.0,3.3,0.0,0
5916.0,0.0,3.3,0.0,0
5918.0,0.0,3.3,0.0,0
5920.0,0.0,3.3,0.0,0
5922.0,0.0,3.3,0.0,0
5924.0,0.0,3.3,0.0,0
5926.0,0.0,3.3,0.0,0
5928.0,0.0,3.3,0.0,0
5931.0,0.0,3.3,0.0,0
5933.0,0.0,3.3,0.0,0
5935.0,0.0,3.3,0.0,0
5937.0,0.0,3.3,0.0,0
5939.0,0.0,3.3,0.0,0
5941.0,0.0,3.3,0.0,0
5943.0,0.0,3.3,0.0,0
5945.0,0.0,3.3,0.0,0
5947.0,0.0,3.3,0.0,0
5949.0,0.0,3.3,0.0,0
5951.0,0.0,3.3,0.0,0
5953.0,0.0,3.3,0.0,0
5955.0,0.0,3.3,0.0,0
5957.0,0.0,3.3,0.0,0
5958.0,0.0,3.3,0.0,0
5960.0,0.0,3.3,0.0,0
5962.0,0.0,3.3,0.0,0
5964.0,0.0,3.3,0.0,0
5966.0,0.0,3.3,0.0,0
5968.0,0.0,3.3,0.0,0
5970.0,0.0,3.3,0.0,0
5972.0,0.0,3.3,0.0,0
5975.0,0.0,3.3,0.0,0
5977.0,0.0,3.3,0.0,0
5979.0,0.0,3.3,0.0,0
5981.0,0.0,3.3,0.0,0
5983.0,0.0,3.3,0.0,0
5985.0,0.0,3.3,0.0,0
5987.0,0.0,3.3,0.0,0
5989.0,0.0,3.3,0.0,0
5991.0,0.0,3.3,0.0,0
5993.0,0.0,3.3,0.0,0
5995.0,0.0,3.3,0.0,0
5997.0,0.0,3.3,0.0,0
5999.0,0.0,3.3,0.0,0
6000.0,0.0,3.3,0.0,0
6002.0,0.0,3.3,0.0,0
6004.0,0.0,3.3,0.0,0
6006.0,0.0,3.3,0.0,0
6008.0,0.0,3.3,0.0,0
6010.0,0.0,3.3,0.0,0
6012.0,0.0,3.3,0.0,0
6014.0,0.0,3.3,0.0,0
6017.0,0.0,3.3,0.0,0
6019.0,0.0,3.3,0.0,0
6021.0,0.0,3.3,0.0,0
6023.0,0.0,3.3,0.0,0
6025.0,0.0,3.3,0.0,0
6027.0,0.0,3.3,0.0,0
6029.0,0.0,3.3,0.0,0
6031.0,0.0,3.3,0.0,0
6033.0,0.0,3.3,0.0,0
6035.0,0.0,3.3,0.0,0
6037.0,0.0,3.3,0.0,0
6039.0,0.0,3.3,0.0,0
6041.0,0.0,3.3,0.0,0
6043.0,0.0,3.3,0.0,0
6044.0,0.0,3.3,0.0,0
6046.0,0.0,3.3,0.0,0
6048.0,0.0,3.3,0.0,0
6050.0,0.0,3.3,0.0,0
6052.0,0.0,3.3,0.0,0
6054.0,0.0,3.3,0.0,0
6056.0,0.0,3.3,0.0,0
6059.0,0.0,3.3,0.0,0
6061.0,0.0,3.3,0.0,0
6063.0,0.0,3.3,0.0,0
6065.0,0.0,3.3,0.0,0
6067.0,0.0,3.3,0.0,0
6069.0,0.0,3.3,0.0,0
6071.0,0.0,3.3,0.0,0
6073.0,0.0,3.3,0.0,0
6075.0,0.0,3.3,0.0,0
6077.0,0.0,3.3,0.0,0
6079.0,0.0,3.3,0.0,0
6081.0,0.0,3.3,0.0,0
6083.0,0.0,3.3,0.0,0
6085.0,0.0,3.3,0.0,0
6086.0,0.0,3.3,0.0,0
6088.0,0.0,3.3,0.0,0
6090.0,0.0,3.3,0.0,0
6092.0,0.0,3.3,0.0,0
6094.0,0.0,3.3,0.0,0
6096.0,0.0,3.3,0.0,0
6098.0,0.0,3.3,0.0,0
6100.0,0.0,3.3,0.0,0
6103.0,0.0,3.3,3.3,0
6105.0,0.0,3.3,3.3,0
6107.0,0.0,3.3,3.3,0
6109.0,0.0,3.3,3.3,0
6111.0,0.0,3.3,1.28,0
6113.0,0.0,3.3,0.0,0
6115.0,0.0,3.3,0.0,0
6117.0,0.0,3.3,0.0,0
6119.0,0.0,3.3,0.0,0
6121.0,0.0,3.3,0.0,0
6123.0,0.0,3.3,3.3,0
6125.0,0.0,3.3,3.3,0
6127.0,0.0,3.3,3.3,0
6128.0,0.0,3.3,3.3,0
6130.0,0.0,3.3,3.3,0
6132.0,0.0,3.3,0.0,0
6134.0,0.0,3.3,0.0,0
6136.0,0.0,3.3,0.0,0
6138.0,0.0,3.3,0.0,0
6140.0,0.0,3.3,0.0,0
6142.0,0.0,3.3,3.3,0
6145.0,0.0,3.3,3.3,0
6147.0,0.0,3.3,3.3,0
6149.0,0.0,3.3,3.3,0
6151.0,0.0,3.3,0.0,0
6153.0,0.0,3.3,0.0,0
6155.0,0.0,3.3,0.0,0
6157.0,0.0,3.3,0.0,0
6159.0,0.0,3.3,0.0,0
6161.0,0.0,3.3,0.15,0
6163.0,0.0,3.3,3.3,0
6165.0,0.0,3.3,3.3,0
6167.0,0.0,3.3,3.3,0
6169.0,0.0,3.3,3.3,0
6171.0,0.0,3.3,3.3,0
6172.0,0.0,3.3,3.3,0
6174.0,0.0,3.3,3.3,0
6176.0,0.0,3.3,3.3,0
6178.0,0.0,3.3,3.3,0
6180.0,0.0,3.3,3.3,0
6182.0,0.0,3.3,3.3,0
6184.0,0.0,3.3,3.3,0
6187.0,0.0,3.3,3.3,0
6189.0,0.0,3.3,3.3,0
6191.0,0.0,3.3,3.3,0
6193.0,0.0,3.3,3.3,0
6195.0,0.0,3.3,3.3,0
6197.0,0.0,3.3,3.3,0
6199.0,0.0,3.3,3.3,0
6201.0,0.0,3.3,3.3,0
6203.0,0.0,3.3,3.3,0
6205.0,0.0,3.3,3.3,0
6207.0,0.0,3.3,3.3,0
6209.0,0.0,3.3,3.3,0
6211.0,0.0,3.3,3.3,0
6213.0,0.0,3.3,3.3,0
6214.0,0.0,3.3,3.3,0
6216.0,0.0,3.3,3.3,0
6218.0,0.0,3.3,3.3,0
6220.0,0.0,3.3,3.3,0
6222.0,0.0,3.3,3.3,0
6224.0,0.0,3.3,3.3,0
6226.0,0.0,3.3,3.3,0
6228.0,0.0,3.3,3.3,0
6231.0,0.0,3.3,3.3,0
6233.0,0.0,3.3,3.3,0
6235.0,0.0,3.3,3.3,0
6237.0,0.0,3.3,3.3,0
6239.0,0.0,3.3,3.3,0
6241.0,0.0,3.3,3.3,0
6243.0,0.0,3.3,3.3,0
6245.0,0.0,3.3,3.3,0
6247.0,0.0,3.3,3.3,0
6249.0,0.0,3.3,3.3,0
6251.0,0.0,3.3,3.3,0
6253.0,0.0,3.3,3.3,0
6255.0,0.0,3.3,3.3,0
6256.0,0.0,3.3,3.3,0
6258.0,0.0,3.3,3.3,0
6260.0,0.0,3.3,3.3,0
6262.0,0.0,3.3,3.3,0
6264.0,0.0,3.3,3.3,0
6266.0,0.0,3.3,3.3,0
6268.0,0.0,3.3,3.3,0
6270.0,0.0,3.3,3.3,0
6273.0,0.0,3.3,3.3,0
6275.0,0.0,3.3,3.3,0
6277.0,0.07,3.3,3.3,0
6279.0,0.14,3.3,3.3,0
6281.0,0.2,3.3,3.3,0
6283.0,0.27,3.3,3.3,0
6285.0,0.34,3.3,3.3,0
6287.0,0.39,3.3,3.3,0
6289.0,0.46,3.3,3.3,0
6291.0,0.52,3.3,3.3,0
6293.0,0.57,3.3,3.3,0
6295.0,0.64,3.3,3.3,0
6297.0,0.7,3.3,3.3,0
6299.0,0.76,3.3,3.3,0
6300.0,0.81,3.3,3.3,0
6302.0,0.85,3.3,3.3,0
6304.0,0.89,3.3,3.3,0
6306.0,0.95,3.3,3.3,0
6308.0,1.0,3.3,3.3,0
6310.0,1.05,3.3,3.3,0
6312.0,1.09,3.3,3.3,0
6315.0,1.14,3.3,3.3,0
6317.0,1.2,3.3,3.3,0
6319.0,1.25,3.3,3.3,0
6321.0,1.29,3.3,3.3,0
6323.0,1.32,3.3,3.3,0
6325.0,1.36,3.3,3.3,0
6327.0,1.39,3.3,3.3,0
6329.0,1.44,3.3,3.3,0
6331.0,1.48,3.3,3.3,0
6333.0,1.53,3.3,3.3,0
6335.0,1.56,3.3,3.3,0
6337.0,1.62,3.3,3.3,0
6339.0,1.65,3.3,3.3,0
6341.0,1.68,3.3,3.3,0
6342.0,1.71,3.3,3.3,0
6344.0,1.74,3.3,3.3,0
6346.0,1.77,3.3,3.3,0
6348.0,1.8,3.3,3.3,0
6350.0,1.84,3.3,3.3,0
6352.0,1.87,3.3,3.3,0
6354.0,1.91,3.3,3.3,0
6356.0,1.96,3.3,3.3,0
6359.0,1.98,3.3,3.3,0
6361.0,2.02,3.3,3.3,0
6363.0,2.03,3.3,3.3,0
6365.0,2.05,3.3,3.3,0
6367.0,2.07,3.3,3.3,0
6369.0,2.1,3.3,3.3,0
6371.0,2.14,3.3,3.3,0
6373.0,2.16,3.3,3.3,0
6375.0,2.19,3.3,3.3,0
6377.0,2.23,3.3,3.3,0
6379.0,2.26,3.3,3.3,0
6381.0,2.28,3.3,3.3,0
6383.0,2.3,3.3,3.3,0
6384.0,2.31,3.3,3.3,0
6386.0,2.34,3.3,3.3,0
6388.0,2.35,3.3,3.3,0
6390.0,2.37,3.3,3.3,0
6392.0,2.4,3.3,3.3,0
6394.0,2.42,3.3,3.3,0
6396.0,2.45,3.3,3.3,0
6398.0,2.48,3.3,3.3,0
6401.0,2.5,3.3,3.3,0
6403.0,2.5,3.3,3.3,0
6405.0,2.52,3.3,3.3,0
6407.0,2.53,3.3,3.3,0
6409.0,2.55,3.3,3.3,0
6411.0,2.57,3.3,3.3,0
6413.0,2.59,3.3,3.3,0
6415.0,2.61,3.3,3.3,0
6417.0,2.64,3.3,3.3,0
6419.0,2.66,3.3,3.3,0
6421.0,2.67,3.3,3.3,0
6423.0,2.68,3.3,3.3,0
6425.0,2.7,3.3,3.3,0
6427.0,2.71,3.3,3.3,0
6428.0,2.73,3.3,3.3,0
6430.0,2.74,3.3,3.3,0
6432.0,2.75,3.3,3.3,0
6434.0,2.78,3.3,3.3,0
6436.0,2.82,3.3,3.3,0
6438.0,3.03,3.3,3.3,0
6440.0,3.02,3.3,3.3,0
6443.0,0.0,3.3,3.3,0
6445.0,0.0,3.3,0.0,0
6447.0,0.0,3.3,0.41,0
6449.0,0.0,3.3,3.3,0
6451.0,0.0,3.3,3.3,0
6453.0,0.0,3.3,3.3,0
6455.0,0.0,3.3,3.3,0
6457.0,0.0,3.3,3.3,0
6459.0,0.0,3.3,3.3,0
6461.0,0.0,3.3,3.3,0
6463.0,0.0,3.3,0.0,0
6465.0,0.0,3.3,0.0,0
6467.0,0.0,3.3,0.0,0
6469.0,0.0,3.3,0.0,0
6470.0,0.0,3.3,3.3,0
6472.0,0.0,3.3,3.3,0
6474.0,0.0,3.3,3.3,0
6476.0,0.0,3.3,3.3,0
6478.0,0.0,3.3,3.3,0
6480.0,0.0,3.3,3.3,0
6482.0,0.0,3.3,0.0,0
6484.0,0.0,3.3,0.0,0
6487.0,0.0,3.3,0.0,0
6489.0,0.0,3.3,1.36,0
6491.0,0.0,3.3,3.3,0
6493.0,0.0,3.3,3.3,0
6495.0,0.0,3.3,3.3,0
6497.0,0.0,3.3,3.3,0
6499.0,0.0,3.3,3.3,0
6501.0,0.0,3.3,3.3,0
6503.0,0.0,3.3,2.26,0
6505.0,0.0,3.3,0.0,0
6507.0,0.0,3.3,2.07,0
6509.0,0.0,3.3,3.3,0
6511.0,0.0,3.3,3.3,0
6512.0,0.0,3.3,3.3,0
6514.0,0.0,3.3,3.3,0
6516.0,0.0,3.3,3.3,0
6518.0,0.0,3.3,3.3,0
6520.0,0.0,3.3,3.3,0
6522.0,0.0,3.3,3.3,0
6524.0,0.0,3.3,3.3,0
6526.0,0.0,3.3,3.3,0
6529.0,0.0,3.3,3.3,0
6531.0,0.0,3.3,3.3,0
6533.0,0.0,3.3,3.3,0
6535.0,0.0,3.3,3.3,0
6537.0,0.0,3.3,3.3,0
6539.0,0.0,3.3,3.3,0
6541.0,0.0,3.3,3.3,0
6543.0,0.0,3.3,3.3,0
6545.0,0.0,3.3,2.31,0
6547.0,0.0,3.3,3.3,0
6549.0,0.0,3.3,3.3,0
6551.0,0.0,3.3,3.3,0
6553.0,0.0,3.3,3.3,0
6555.0,0.0,3.3,3.3,0
6556.0,0.0,3.3,3.3,0
6558.0,0.0,3.3,3.3,0
6560.0,0.0,3.3,3.3,0
6562.0,0.0,3.3,0.0,0
6564.0,0.0,3.3,0.0,0
6566.0,0.0,3.3,0.0,0
6568.0,0.0,3.3,0.0,0
6571.0,0.0,3.3,3.3,0
6573.0,0.0,3.3,3.3,0
6575.0,0.0,3.3,3.3,0
6577.0,0.0,3.3,3.3,0
6579.0,0.0,3.3,3.3,0
6581.0,0.0,3.3,0.1,0
6583.0,0.0,3.3,0.0,0
6585.0,0.0,3.3,0.0,0
6587.0,0.0,3.3,0.0,0
6589.0,0.0,3.3,0.0,0
6591.0,0.0,3.3,0.0,0
6593.0,0.0,3.3,3.3,0
6595.0,0.0,3.3,3.3,0
6597.0,0.0,3.3,3.3,0
6598.0,0.0,3.3,3.3,0
6600.0,0.0,3.3,0.0,0
6602.0,0.0,3.3,0.0,0
6604.0,0.0,3.3,0.0,0
6606.0,0.0,3.3,0.0,0
6608.0,0.0,3.3,0.0,0
6610.0,0.0,3.3,0.0,0
6612.0,0.0,3.3,3.13,0
6615.0,0.0,3.3,3.3,0
6617.0,0.0,3.27,3.3,0
6619.0,0.0,3.1,3.3,0
6621.0,0.0,2.96,0.0,0
6623.0,0.0,2.92,0.0,0
6625.0,0.0,2.95,0.0,0
6627.0,0.0,2.99,0.0,0
6629.0,0.0,3.04,0.0,0
6631.0,0.0,3.06,0.0,0
6633.0,0.0,3.1,2.25,0
6635.0,3.3,3.15,3.3,0
6637.0,0.0,3.19,3.3,0
6639.0,0.0,3.2,3.3,0
6640.0,0.0,3.22,0.0,0
6642.0,0.0,3.22,0.0,0
6644.0,0.0,3.22,0.0,0
6646.0,0.0,3.25,0.0,0
6648.0,0.0,3.27,0.0,0
6650.0,0.0,3.29,0.0,0
6652.0,3.3,3.29,3.3,0
6654.0,3.3,3.3,3.3,0
6657.0,0.0,3.3,3.3,0
6659.0,0.0,3.3,3.3,0
6661.0,0.0,3.3,0.0,0
6663.0,0.0,3.3,0.0,0
6665.0,0.0,3.3,0.0,0
6667.0,0.0,3.29,0.0,0
6669.0,0.0,3.25,0.0,0
6671.0,0.0,3.21,0.0,0
6673.0,3.3,3.21,3.3,0
6675.0,3.3,3.15,3.3,0
6677.0,0.0,3.13,3.3,0
6679.0,0.0,3.14,3.3,0
6681.0,0.0,3.14,0.0,0
6683.0,0.0,3.16,0.0,0
6684.0,0.0,3.19,0.0,0
6686.0,0.0,3.22,0.0,0
6688.0,0.0,3.27,0.0,0
6690.0,0.0,3.3,1.12,0
6692.0,3.3,3.3,3.3,0
6694.0,3.3,3.3,3.3,0
6696.0,0.0,3.3,3.3,0
6699.0,0.0,3.3,3.3,0
6701.0,0.0,3.3,0.0,0
6703.0,0.0,3.3,0.0,0
6705.0,0.0,3.3,0.0,0
6707.0,0.0,3.3,0.0,0
6709.0,0.0,3.3,0.0,0
6711.0,0.0,3.3,3.3,0
6713.0,3.3,3.3,3.3,0
6715.0,3.3,3.3,3.3,0
6717.0,0.0,3.3,3.3,0
6719.0,0.0,3.3,3.3,0
6721.0,0.0,3.3,2.65,0
6723.0,0.0,3.3,0.0,0
6725.0,0.0,3.3,0.0,0
6726.0,0.0,3.3,0.0,0
6728.0,0.0,3.3,3.3,0
6730.0,3.3,3.3,3.3,0
6732.0,3.3,3.3,3.3,0
6734.0,3.3,3.3,3.3,0
6736.0,0.0,3.3,3.3,0
6738.0,0.0,3.3,3.3,0
6740.0,0.0,3.3,3.3,0
6743.0,0.0,3.3,0.0,0
6745.0,0.0,3.3,0.0,0
6747.0,0.0,3.3,1.97,0
6749.0,3.3,3.3,3.3,0
6751.0,3.3,3.3,3.3,0
6753.0,3.3,3.3,3.3,0
6755.0,3.3,3.3,3.3,0
6757.0,0.0,3.3,3.3,0
6759.0,0.0,3.3,3.3,0
6761.0,0.0,3.3,3.3,0
6763.0,0.0,3.3,0.0,0
6765.0,0.0,3.3,0.58,0
6767.0,0.0,3.3,3.3,0
6768.0,0.18,3.3,3.3,0
6770.0,3.3,3.3,3.3,0
6772.0,3.3,3.3,3.3,0
6774.0,3.3,3.3,3.3,0
6776.0,0.0,3.3,3.3,0
6778.0,0.0,3.3,3.3,0
6780.0,0.0,3.3,3.3,0
6782.0,0.0,3.3,0.0,0
6785.0,0.0,3.3,0.08,0
6787.0,1.97,3.3,3.3,0
6789.0,3.3,3.3,3.3,0
6791.0,3.3,3.3,3.3,0
6793.0,3.3,3.3,3.3,0
6795.0,3.3,3.3,3.3,0
6797.0,0.0,3.13,3.3,0
6799.0,0.0,3.01,3.3,0
6801.0,0.0,3.11,3.3,0
6803.0,0.0,3.05,0.0,0
6805.0,0.0,3.03,0.0,0
6807.0,3.3,3.04,3.3,0
6809.0,3.3,3.07,3.3,0
6811.0,3.3,3.17,3.3,0
6812.0,3.3,3.3,3.3,0
6814.0,3.3,3.3,3.3,0
6816.0,3.3,3.3,3.3,0
6818.0,0.0,3.3,3.3,0
6820.0,0.0,3.3,2.13,0
6822.0,0.0,3.3,0.0,0
6824.0,0.0,3.3,0.0,0
6827.0,0.0,3.3,0.0,0
6829.0,0.0,3.3,3.3,0
6831.0,0.0,3.3,3.3,0
6833.0,3.3,3.3,3.3,0
6835.0,3.3,3.3,3.3,0
6837.0,3.3,3.3,3.3,0
6839.0,0.0,3.3,3.3,0
6841.0,0.0,3.3,0.0,0
6843.0,0.0,3.3,0.0,0
6845.0,0.0,3.3,0.0,0
6847.0,0.0,3.3,0.0,0
6849.0,0.0,3.3,0.0,0
6851.0,0.0,3.3,3.3,0
6853.0,3.3,3.3,3.3,0
6854.0,3.3,3.3,3.3,0
6856.0,3.3,3.3,3.3,0
6858.0,1.15,3.3,3.3,0
6860.0,0.0,3.3,0.0,0
6862.0,0.0,3.3,0.0,0
6864.0,0.0,3.3,0.0,0
6866.0,0.0,3.3,0.0,0
6868.0,0.0,3.3,0.0,0
6871.0,0.0,3.3,3.3,0
6873.0,3.3,3.3,3.3,0
6875.0,3.3,3.3,3.3,0
6877.0,3.3,3.3,3.3,0
6879.0,3.3,3.3,3.3,0
6881.0,0.0,3.3,0.0,0
6883.0,0.0,3.3,0.0,0
6885.0,0.0,3.3,0.0,0
6887.0,0.0,3.3,0.0,0
6889.0,0.0,3.3,0.0,0
6891.0,0.0,3.3,3.24,0
6893.0,3.3,3.3,3.3,0
6895.0,3.3,3.3,3.3,0
6896.0,3.3,3.3,3.3,0
6898.0,3.3,3.3,3.3,0
6900.0,0.0,3.3,0.0,0
6902.0,0.0,3.3,0.0,0
6904.0,0.0,3.3,0.0,0
6906.0,0.0,3.3,0.0,0
6908.0,0.0,3.3,0.0,0
6910.0,0.0,3.3,3.3,0
6913.0,3.3,3.3,3.3,0
6915.0,3.3,3.3,3.3,0
6917.0,3.3,3.3,3.3,0
6919.0,3.3,3.3,3.3,0
6921.0,0.0,3.3,0.0,0
6923.0,0.0,3.3,0.0,0
6925.0,0.0,3.3,0.0,0
6927.0,0.0,3.3,0.0,0
6929.0,0.0,3.3,0.0,0
6931.0,0.0,3.3,3.3,0
6933.0,3.3,3.3,3.3,0
6935.0,3.3,3.3,3.3,0
6937.0,3.3,3.3,3.3,0
6939.0,3.3,3.3,3.3,0
6940.0,0.0,3.3,0.0,0
6942.0,0.0,3.3,0.0,0
6944.0,0.0,3.3,0.0,0
6946.0,0.0,3.3,0.0,0
6948.0,0.0,3.3,0.0,0
6950.0,1.79,3.3,3.3,0
6952.0,3.3,3.3,3.3,0
6955.0,3.3,3.3,3.3,0
6957.0,3.3,3.3,3.3,0
6959.0,3.3,3.3,3.3,0
6961.0,0.0,3.3,0.0,0
6963.0,0.0,3.3,0.0,0
6965.0,0.0,3.3,0.0,0
6967.0,0.0,3.3,0.0,0
6969.0,0.0,3.3,0.0,0
6971.0,3.3,3.3,3.3,0
6973.0,3.3,3.3,3.3,0
6975.0,3.3,3.3,3.3,0
6977.0,3.3,3.3,3.3,0
6979.0,3.3,3.3,3.3,0
6981.0,0.0,3.3,0.0,0
6982.0,0.0,3.3,0.0,0
6984.0,0.0,3.3,0.0,0
6986.0,0.0,3.3,0.0,0
6988.0,0.0,3.3,3.3,0
6990.0,3.3,3.3,3.3,0
6992.0,3.3,3.3,3.3,0
6994.0,3.3,3.3,3.3,0
6996.0,3.3,3.3,3.3,0
6999.0,3.3,3.3,3.3,0
7001.0,0.0,3.3,0.0,0
7003.0,0.0,3.3,0.0,0
7005.0,0.0,3.3,0.0,0
7007.0,0.0,3.3,3.22,0
7009.0,0.0,3.3,3.3,0
7011.0,3.3,3.3,3.3,0
7013.0,3.3,3.3,3.3,0
7015.0,3.3,3.3,3.3,0
7017.0,3.3,3.3,3.3,0
7019.0,3.3,3.3,3.3,0
7021.0,0.0,3.3,0.0,0
7023.0,0.0,3.3,0.0,0
7024.0,0.0,3.3,0.0,0
7026.0,0.0,3.3,3.3,0
7028.0,3.3,3.3,3.3,0
7030.0,3.3,3.3,3.3,0
7032.0,3.3,3.3,3.3,0
7034.0,3.3,3.3,3.3,0
7036.0,3.3,3.3,3.3,0
7038.0,3.3,3.3,3.3,0
7041.0,0.0,3.3,0.0,0
7043.0,0.0,3.3,0.0,0
7045.0,0.0,3.3,0.0,0
7047.0,0.0,3.3,0.0,0
7049.0,3.3,3.3,0.0,0
7051.0,3.3,3.3,3.3,0
7053.0,3.3,3.3,3.3,0
7055.0,3.3,3.3,3.3,0
7057.0,3.3,3.3,3.3,0
7059.0,3.3,3.3,0.0,0
7061.0,0.0,3.3,0.0,0
7063.0,0.0,3.3,0.0,0
7065.0,0.0,3.3,0.0,0
7067.0,0.0,3.3,0.0,0
7068.0,0.0,3.3,0.0,0
7070.0,0.0,3.3,0.0,0
7072.0,0.0,3.3,3.3,0
7074.0,0.0,3.3,3.3,0
7076.0,0.0,3.3,3.3,0
7078.0,0.0,3.3,0.0,0
7080.0,0.0,3.3,0.0,0
7083.0,0.0,3.3,0.0,0
7085.0,0.0,3.3,0.0,0
7087.0,0.0,3.3,0.0,0
7089.0,0.0,3.3,0.0,0
7091.0,0.0,3.3,0.0,0
7093.0,0.0,3.3,3.3,0
7095.0,0.0,3.3,3.3,0
7097.0,0.0,3.3,3.3,0
7099.0,0.0,3.3,0.0,0
7101.0,0.0,3.3,0.0,0
7103.0,0.0,3.3,0.0,0
7105.0,0.0,3.3,0.0,0
7107.0,0.0,3.3,0.0,0
7109.0,0.0,3.3,0.0,0
7110.0,0.0,3.3,1.63,0
7112.0,0.0,3.3,3.3,0
7114.0,0.0,3.3,3.3,0
7116.0,0.0,3.3,3.3,0
7118.0,0.0,3.3,0.0,0
7120.0,0.0,3.3,0.0,0
7122.0,0.0,3.3,0.0,0
7124.0,0.0,3.3,0.0,0
7127.0,0.0,3.3,0.0,0
7129.0,0.0,3.3,0.0,0
7131.0,0.0,3.3,2.94,0
7133.0,0.0,3.3,3.3,0
7135.0,0.0,3.3,3.3,0
7137.0,0.0,3.3,3.3,0
7139.0,0.0,3.3,0.0,0
7141.0,0.0,3.3,0.0,0
7143.0,0.0,3.3,0.0,0
7145.0,0.0,3.3,0.0,0
7147.0,0.0,3.3,0.0,0
7149.0,0.0,3.3,0.0,0
7151.0,0.0,3.3,2.44,0
7152.0,0.0,3.3,3.3,0
7154.0,0.0,3.3,3.3,0
7156.0,0.0,3.3,3.3,0
7158.0,0.0,3.3,0.0,0
7160.0,0.0,3.3,0.0,0
7162.0,0.77,3.3,0.0,0
7164.0,3.3,3.3,0.0,0
7166.0,3.3,3.3,0.0,0
7169.0,3.3,3.3,0.0,0
7171.0,3.3,3.3,3.01,0
7173.0,3.3,3.3,3.3,0
7175.0,3.3,3.3,3.3,0
7177.0,3.3,3.3,3.3,0
7179.0,3.3,3.3,0.0,0
7181.0,3.3,3.3,0.0,0
7183.0,3.3,3.3,0.0,0
7185.0,3.3,3.3,0.0,0
7187.0,3.3,3.3,0.0,0
7189.0,3.3,3.3,0.0,0
7191.0,3.3,3.3,3.3,0
7193.0,3.3,3.3,3.3,0
7195.0,3.3,3.3,3.3,0
7196.0,3.3,3.3,3.3,0
7198.0,3.3,3.3,0.0,0
7200.0,3.3,3.3,0.0,0
7202.0,3.3,3.3,0.0,0
7204.0,3.3,3.3,0.0,0
7206.0,3.3,3.3,0.0,0
7208.0,3.3,3.3,0.0,0
7211.0,3.3,3.3,3.3,0
7213.0,3.3,3.3,3.3,0
7215.0,3.3,3.3,3.3,0
7217.0,3.3,3.3,3.3,0
7219.0,3.3,3.3,0.11,0
7221.0,3.3,3.3,0.0,0
7223.0,3.3,3.3,0.0,0
7225.0,3.3,3.3,0.0,0
7227.0,3.3,3.3,0.0,0
7229.0,3.3,3.3,0.0,0
7231.0,3.3,3.3,3.3,0
7233.0,3.3,3.3,3.3,0
7235.0,3.3,3.3,3.3,0
7237.0,3.3,3.3,3.3,0
7238.0,3.3,3.3,0.0,0
7240.0,3.3,3.3,0.0,0
7242.0,3.3,3.3,0.0,0
7244.0,3.3,3.3,0.0,0
7246.0,3.3,3.3,0.0,0
7248.0,3.3,3.3,0.0,0
7250.0,3.3,3.3,3.3,0
7252.0,3.3,3.3,3.3,0
7255.0,3.3,3.3,3.3,0
7257.0,3.3,3.3,3.3,0
7259.0,3.3,3.3,0.0,0
7261.0,3.3,3.3,0.0,0
7263.0,3.3,3.3,0.0,0
7265.0,3.3,3.3,0.0,0
7267.0,3.3,3.3,0.0,0
7269.0,3.3,3.3,0.0,0
7271.0,3.3,3.3,3.3,0
7273.0,3.3,3.3,3.3,0
7275.0,3.3,3.3,3.3,0
7277.0,3.3,3.3,3.3,0
7279.0,3.3,3.3,0.0,0
7281.0,3.3,3.3,0.0,0
7282.0,3.3,3.3,0.0,0
7284.0,3.3,3.3,0.0,0
7286.0,3.3,3.3,0.0,0
7288.0,3.3,3.3,0.0,0
7290.0,3.3,3.3,2.35,0
7292.0,3.3,3.3,3.3,0
7294.0,3.3,3.3,3.3,0
7297.0,3.3,3.3,1.96,0
7299.0,3.3,3.3,0.0,0
7301.0,3.3,0.0,0.0,0
7303.0,0.0,0.0,0.0,0
7305.0,3.3,3.3,0.0,0
7307.0,3.3,3.3,0.0,0
7309.0,3.3,3.3,0.0,0
7311.0,3.3,3.3,0.0,0
7313.0,3.3,3.3,0.0,0
7315.0,3.3,3.3,0.0,0
7317.0,3.3,3.3,0.0,0
7319.0,3.3,3.3,0.0,0
7321.0,0.0,0.0,0.0,0
7323.0,0.0,0.0,0.0,0
7324.0,3.3,2.8,0.0,0
7326.0,3.3,3.3,0.0,0
7328.0,3.3,3.3,0.0,0
7330.0,3.3,3.3,0.0,0
7332.0,3.3,3.3,0.0,0
7334.0,3.3,3.3,0.0,0
7336.0,3.3,3.3,0.0,0
7339.0,3.3,2.15,0.0,0
7341.0,0.0,0.0,0.0,0
7343.0,0.0,0.0,0.0,0
7345.0,0.0,0.0,0.0,0
7347.0,3.3,0.0,0.0,0
7349.0,3.3,3.3,0.0,0
7351.0,3.3,3.3,0.0,0
7353.0,3.3,3.3,0.0,0
7355.0,3.3,3.3,0.0,0
7357.0,3.3,3.3,0.0,0
7359.0,3.3,0.0,0.0,0
7361.0,0.0,0.0,0.0,0
7363.0,0.0,0.0,0.0,0
7365.0,0.0,0.0,0.0,0
7366.0,3.3,0.0,0.0,0
7368.0,3.3,0.0,0.0,0
7370.0,3.3,0.0,0.0,0
7372.0,3.3,0.45,0.0,0
7374.0,3.3,0.0,0.0,0
7376.0,3.3,0.0,0.0,0
7378.0,3.3,0.0,0.0,0
7380.0,0.0,0.0,0.0,0
7383.0,0.0,0.0,0.0,0
7385.0,0.0,3.3,0.0,0
7387.0,3.3,3.3,0.0,0
7389.0,3.3,3.3,0.0,0
7391.0,3.3,3.3,0.0,0
7393.0,3.3,3.3,0.0,0
7395.0,3.3,3.3,0.0,0
7397.0,3.3,3.3,0.0,0
7399.0,3.3,3.3,0.0,0
7401.0,0.0,3.3,0.0,0
7403.0,0.0,3.3,0.0,0
7405.0,0.0,3.3,0.0,0
7407.0,3.3,3.3,0.0,0
7409.0,3.3,3.3,0.0,0
7410.0,3.3,3.3,0.0,0
7412.0,3.3,3.3,0.0,0
7414.0,3.3,3.3,0.0,0
7416.0,3.3,3.3,0.0,0
7418.0,3.3,3.3,0.0,0
7420.0,0.0,3.3,0.0,0
7422.0,0.0,3.3,0.0,0
7425.0,0.0,3.3,0.0,0
7427.0,3.3,0.0,0.0,0
7429.0,3.3,0.0,0.0,0
7431.0,3.3,0.0,0.0,0
7433.0,3.3,0.0,0.0,0
7435.0,3.3,0.0,0.0,0
7437.0,3.3,0.0,0.0,0
7439.0,3.3,0.0,0.0,0
7441.0,0.0,0.0,0.0,0
7443.0,0.0,0.0,0.0,0
7445.0,0.0,0.0,0.0,0
7447.0,3.3,0.0,0.0,0
7449.0,3.3,0.0,0.0,0
7451.0,3.3,0.0,0.0,0
7452.0,3.3,0.0,0.0,0
7454.0,3.3,0.0,0.0,0
7456.0,3.3,0.0,0.0,0
7458.0,3.3,0.0,0.0,0
7460.0,0.0,0.0,0.0,0
7462.0,0.0,0.0,0.0,0
7464.0,0.0,0.0,3.3,0
7467.0,3.3,0.0,3.3,0
7469.0,3.3,0.0,3.3,0
7471.0,3.3,0.0,3.3,0
7473.0,3.3,0.0,3.3,0
7475.0,3.3,0.0,3.3,0
7477.0,3.3,0.0,3.3,0
7479.0,3.3,0.0,3.3,0
7481.0,0.0,0.0,3.3,0
7483.0,0.0,0.0,3.3,0
7485.0,0.0,0.0,3.3,0
7487.0,3.3,0.0,3.3,0
7489.0,3.3,0.0,3.3,0
7491.0,3.3,0.0,3.3,0
7493.0,3.3,0.0,3.3,0
7495.0,3.3,0.0,3.3,0
7496.0,3.3,0.0,3.3,0
7498.0,3.3,0.0,3.3,0
7500.0,0.0,0.0,3.3,0
7502.0,0.0,0.0,3.3,0
7504.0,0.0,0.0,3.3,0
7506.0,3.3,0.0,3.3,0
7508.0,3.3,0.0,3.3,0
7511.0,3.3,0.0,3.3,0
7513.0,3.3,0.0,3.3,0
7515.0,3.3,0.0,3.3,0
7517.0,3.3,0.0,3.3,0
7519.0,3.3,0.0,3.3,0
7521.0,0.0,0.0,3.3,0
7523.0,0.0,0.0,3.3,0
7525.0,3.3,0.0,3.3,0
7527.0,3.3,0.0,3.3,0
7529.0,3.3,0.0,3.3,0
7531.0,3.3,0.0,3.3,0
7533.0,3.3,0.0,3.3,0
7535.0,3.3,0.0,3.3,0
7537.0,3.3,0.0,3.3,0
7538.0,3.3,0.0,3.3,0
7540.0,3.3,0.0,0.0,0
7542.0,3.3,0.0,0.0,0
7544.0,3.3,0.0,3.3,0
7546.0,3.3,0.0,3.3,0
7548.0,3.3,0.0,3.3,0
7550.0,3.3,0.0,3.3,0
7553.0,3.3,0.0,3.3,0
7555.0,3.3,0.0,3.3,0
7557.0,3.3,0.0,3.3,0
7559.0,3.3,0.0,3.3,0
7561.0,3.3,0.0,0.0,0
7563.0,3.3,0.0,0.0,0
7565.0,3.3,0.0,1.28,0
7567.0,3.3,0.0,3.3,0
7569.0,3.3,0.0,3.3,0
7571.0,3.3,0.0,3.3,0
7573.0,3.3,0.0,3.3,0
7575.0,3.3,0.0,3.3,0
7577.0,3.3,0.0,3.3,0
7579.0,3.3,0.0,3.3,0
7580.0,3.3,0.0,0.0,0
7582.0,3.3,0.0,0.0,0
7584.0,3.3,0.0,0.0,0
7586.0,3.3,0.0,3.3,0
7588.0,3.3,0.0,3.3,0
7590.0,3.3,0.0,3.3,0
7592.0,3.3,0.0,3.3,0
7595.0,3.3,0.0,3.3,0
7597.0,3.3,0.0,3.3,0
7599.0,3.3,0.0,3.18,0
7601.0,3.3,0.0,0.0,0
7603.0,3.3,0.0,0.0,0
7605.0,3.3,0.0,0.0,0
7607.0,3.3,0.0,3.3,0
7609.0,3.3,0.0,3.3,0
7611.0,3.3,3.3,3.3,0
7613.0,3.3,3.3,3.3,0
7615.0,3.3,3.3,3.3,0
7617.0,3.3,3.3,3.3,0
7619.0,3.3,3.3,0.0,0
7621.0,3.3,3.3,0.0,0
7623.0,3.3,3.3,0.0,0
7624.0,3.3,3.3,0.0,0
7626.0,3.3,3.3,1.2,0
7628.0,3.3,3.3,3.3,0
7630.0,3.3,3.3,3.3,0
7632.0,3.3,3.3,3.3,0
7634.0,3.3,0.0,3.3,0
7636.0,3.3,0.0,3.3,0
7639.0,3.3,0.0,0.0,0
7641.0,3.3,0.0,0.0,0
7643.0,3.3,0.0,0.0,0
7645.0,3.3,0.0,0.0,0
7647.0,3.3,0.0,0.0,0
7649.0,3.3,0.0,3.3,0
7651.0,3.3,0.0,3.3,0
7653.0,3.3,0.0,3.3,0
7655.0,3.3,0.0,3.3,0
7657.0,3.3,0.0,3.3,0
7659.0,3.3,0.0,0.0,0
7661.0,3.3,0.0,0.0,0
7663.0,3.3,0.0,0.0,0
7665.0,3.3,0.6,0.0,0
7666.0,3.3,3.3,0.0,0
7668.0,3.3,3.3,3.3,0
7670.0,3.3,3.3,3.3,0
7672.0,3.3,3.3,3.3,0
7674.0,3.3,3.3,3.3,0
7676.0,3.3,3.3,3.3,0
7678.0,3.3,3.3,0.0,0
7681.0,3.3,3.3,0.0,0
7683.0,3.3,3.3,0.0,0
7685.0,3.3,3.3,0.0,0
7687.0,3.3,3.3,0.0,0
7689.0,3.3,3.3,2.9,0
7691.0,3.3,0.0,3.3,0
7693.0,3.3,0.0,3.3,0
7695.0,3.3,3.3,3.3,0
7697.0,3.3,3.3,3.3,0
7699.0,3.3,3.3,0.0,0
7701.0,3.3,3.3,0.0,0
7703.0,3.3,3.3,0.0,0
7705.0,3.3,3.3,0.0,0
7707.0,3.3,3.3,0.0,0
7708.0,3.3,0.0,0.45,0
7710.0,3.3,0.0,3.3,0
7712.0,3.3,0.0,3.3,0
7714.0,3.3,0.0,3.3,0
7716.0,3.3,3.3,3.3,0
7718.0,3.3,3.3,0.0,0
7720.0,3.3,3.3,0.0,0
7723.0,3.3,0.0,0.0,0
7725.0,3.3,0.0,0.0,0
7727.0,3.3,0.0,0.0,0
7729.0,3.3,0.0,0.0,0
7731.0,3.3,0.0,3.3,0
7733.0,3.3,0.0,3.3,0
7735.0,3.3,0.0,3.3,0
7737.0,3.3,0.0,3.3,0
7739.0,3.3,0.0,0.0,0
7741.0,3.3,3.3,0.0,0
7743.0,3.3,3.3,0.0,0
7745.0,3.3,3.3,0.0,0
7747.0,3.3,3.3,0.0,0
7749.0,3.3,3.3,0.0,0
7751.0,3.3,3.3,3.3,0
7752.0,3.3,3.3,3.3,0
7754.0,3.3,3.3,3.3,0
7756.0,3.3,3.3,3.3,0
7758.0,3.3,3.3,0.0,0
7760.0,3.3,3.3,0.0,0
7762.0,3.3,3.3,0.0,0
7764.0,3.3,3.3,0.0,0
7767.0,3.3,3.3,0.0,0
7769.0,3.3,3.3,0.0,0
7771.0,3.3,3.3,3.3,0
7773.0,3.3,3.3,3.3,0
7775.0,3.3,3.3,3.3,0
7777.0,3.3,3.3,3.3,0
7779.0,3.3,2.68,0.0,0
7781.0,3.3,2.47,0.0,0
7783.0,3.27,3.04,0.0,0
7785.0,2.46,3.3,0.0,0
7787.0,1.72,3.3,0.0,0
7789.0,1.04,3.3,0.0,0
7791.0,0.4,3.3,3.3,0
7793.0,0.0,3.3,3.3,0
7794.0,0.0,3.3,3.3,0
7796.0,0.0,3.3,3.3,0
7798.0,0.0,1.07,0.0,0
7800.0,0.0,1.03,0.0,0
7802.0,0.0,2.58,0.0,0
7804.0,0.0,3.3,0.0,0
7806.0,0.0,3.3,0.0,0
7809.0,0.0,3.3,0.0,0
7811.0,0.0,3.3,3.3,0
7813.0,0.0,3.3,3.3,0
7815.0,0.0,3.3,3.3,0
7817.0,0.0,3.3,3.3,0
7819.0,0.0,2.57,0.0,0
7821.0,0.0,3.3,0.0,0
7823.0,0.0,3.3,0.0,0
7825.0,0.0,3.3,0.0,0
7827.0,0.0,3.3,0.0,0
7829.0,0.0,3.3,1.14,0
7831.0,0.0,3.3,3.3,0
7833.0,0.0,3.3,3.3,0
7835.0,0.0,3.3,3.3,0
7836.0,0.0,3.3,3.3,0
7838.0,0.0,2.69,0.0,0
7840.0,0.0,3.3,0.0,0
7842.0,0.0,3.3,0.0,0
7844.0,0.0,3.3,0.0,0
7846.0,0.0,3.3,0.0,0
7848.0,0.0,3.3,3.3,0
7851.0,0.0,3.3,3.3,0
7853.0,0.0,3.3,3.3,0
7855.0,0.0,3.3,3.3,0
7857.0,0.0,1.51,3.3,0
7859.0,0.0,0.0,0.0,0
7861.0,0.0,0.0,0.0,0
7863.0,0.0,0.0,0.0,0
7865.0,0.0,0.0,0.0,0
7867.0,0.0,0.0,2.51,0
7869.0,0.0,0.0,3.3,0
7871.0,0.0,3.3,3.3,0
7873.0,0.0,3.3,3.3,0
7875.0,0.0,0.0,3.3,0
7877.0,0.0,0.0,3.3,0
7879.0,0.0,0.0,0.0,0
7880.0,0.0,0.0,0.0,0
7882.0,0.0,0.0,0.0,0
7884.0,0.0,0.0,0.0,0
7886.0,0.0,0.0,3.3,0
7888.0,0.0,1.29,3.3,0
7890.0,0.0,3.3,3.3,0
7892.0,0.0,3.3,3.3,0
7895.0,0.0,0.73,3.3,0
7897.0,0.0,0.0,3.3,0
7899.0,0.0,0.0,0.0,0
7901.0,0.0,0.0,0.0,0
7903.0,0.0,0.0,0.0,0
7905.0,0.0,0.0,0.0,0
7907.0,0.0,0.0,0.0,0
7909.0,0.0,0.0,0.0,0
7911.0,0.0,0.07,0.0,0
7913.0,0.0,0.0,0.0,0
7915.0,0.0,0.0,0.0,0
7917.0,0.0,0.0,0.0,0
7919.0,0.0,0.0,0.0,0
7921.0,0.0,0.0,0.0,0
7922.0,0.0,0.0,0.0,0
7924.0,0.0,0.0,0.0,0
7926.0,0.0,0.0,0.0,0
7928.0,0.0,0.0,0.0,0
7930.0,0.0,0.0,0.0,0
7932.0,0.0,0.0,0.0,0
7934.0,0.0,0.0,0.0,0
7937.0,0.0,0.0,0.0,0
7939.0,0.0,0.0,0.0,0
7941.0,0.0,0.0,0.0,0
7943.0,0.0,0.0,0.0,0
7945.0,0.0,0.0,0.0,0
7947.0,0.0,0.49,0.0,0
7949.0,0.0,2.53,0.0,0
7951.0,0.0,3.3,0.0,0
7953.0,0.0,3.3,0.0,0
7955.0,0.0,0.0,0.0,0
7957.0,0.0,0.0,0.0,0
7959.0,0.0,0.0,0.0,0
7961.0,0.0,0.0,0.0,0
7963.0,0.0,0.0,0.0,0
7964.0,0.0,0.0,0.0,0
7966.0,0.0,0.84,0.0,0
7968.0,0.0,3.3,0.0,0
7970.0,0.0,3.3,0.0,0
7972.0,0.0,3.3,0.0,0
7974.0,0.0,1.44,0.36,0
7976.0,0.0,0.0,0.88,0
7979.0,0.0,0.0,1.37,0
7981.0,0.0,0.0,1.83,0
7983.0,0.0,0.0,2.26,0
7985.0,0.0,0.0,2.68,0
7987.0,0.0,0.27,3.05,0
7989.0,0.0,3.3,3.3,0
7991.0,0.0,3.3,3.3,0
7993.0,0.0,3.3,3.3,0
7995.0,0.0,0.0,3.3,0
7997.0,0.0,0.0,3.3,0
7999.0,0.0,0.0,3.3,0
8001.0,0.0,0.0,3.3,0
8003.0,0.0,0.0,3.3,0
8005.0,0.0,3.3,3.3,0
8007.0,0.0,3.3,3.3,0
8008.0,0.0,3.3,3.3,0
8010.0,0.0,3.3,3.3,0
8012.0,0.0,3.3,3.3,0
8014.0,0.0,3.3,3.3,0
8016.0,0.0,0.0,3.3,0
8018.0,0.0,0.0,3.3,0
8020.0,0.0,0.48,3.3,0
8023.0,0.0,3.3,3.3,0
8025.0,0.0,3.3,3.3,0
8027.0,0.0,3.3,3.3,0
8029.0,0.0,3.3,3.3,0
8031.0,0.0,3.3,3.3,0
8033.0,0.0,3.3,3.3,0
8035.0,0.0,3.3,3.3,0
8037.0,0.0,3.3,3.3,0
8039.0,0.0,1.8,3.3,0
8041.0,0.0,3.3,3.3,0
8043.0,0.0,3.3,3.3,0
8045.0,0.0,3.3,3.3,0
8047.0,0.0,3.3,3.3,0
8049.0,0.0,3.3,3.3,0
8050.0,0.0,3.3,3.3,0
8052.0,0.0,3.3,3.3,0
8054.0,0.0,3.3,3.3,0
8056.0,0.0,3.3,3.3,0
8058.0,0.0,3.3,3.3,0
8060.0,0.0,3.3,3.3,0
8062.0,0.0,3.3,3.3,0
8065.0,0.0,3.3,3.3,0
8067.0,0.0,3.3,3.3,0
8069.0,0.0,3.3,3.3,0
8071.0,0.0,3.3,3.3,0
8073.0,0.0,3.3,3.3,0
8075.0,0.0,3.3,3.3,0
8077.0,0.0,0.0,3.3,0
8079.0,0.0,0.0,3.3,0
8081.0,0.0,0.0,3.3,0
8083.0,0.0,0.0,3.3,0
8085.0,0.0,0.0,3.3,0
8087.0,0.0,3.3,3.3,0
8089.0,0.0,3.3,3.3,0
8091.0,0.0,3.3,3.3,0
8093.0,0.0,3.3,3.3,0
8094.0,0.0,1.35,3.3,0
8096.0,0.0,0.0,3.3,0
8098.0,0.0,0.0,3.3,0
8100.0,0.0,0.0,3.3,0
8102.0,0.0,0.0,3.3,0
8104.0,0.0,0.0,3.3,0
8107.0,0.0,0.32,3.3,0
8109.0,3.3,3.3,3.3,0
8111.0,3.3,3.3,3.3,0
8113.0,0.0,3.3,3.3,0
8115.0,0.0,0.0,3.3,0
8117.0,0.0,0.0,3.3,0
8119.0,0.0,0.0,3.3,0
8121.0,0.0,0.0,3.3,0
8123.0,0.0,0.0,3.3,0
8125.0,0.0,0.0,3.3,0
8127.0,0.0,0.0,3.3,0
8129.0,0.0,3.3,3.3,0
8131.0,3.3,3.3,3.3,0
8133.0,0.0,3.3,3.3,0
8135.0,0.0,0.0,3.3,0
8136.0,0.0,0.0,3.3,0
8138.0,0.0,0.0,3.3,0
8140.0,0.0,0.0,3.3,0
8142.0,0.0,0.0,3.3,0
8144.0,0.0,3.3,3.3,0
8146.0,0.0,3.3,3.3,0
8148.0,2.76,3.3,3.3,0
8151.0,3.3,3.3,3.3,0
8153.0,3.3,3.3,3.3,0
8155.0,1.65,1.26,3.3,0
8157.0,0.0,0.0,3.3,0
8159.0,0.0,0.0,3.3,0
8161.0,2.69,0.0,3.3,0
8163.0,0.0,0.0,3.3,0
8165.0,0.0,2.42,3.3,0
8167.0,0.0,3.3,3.3,0
8169.0,0.22,3.3,3.3,0
8171.0,3.3,3.3,3.3,0
8173.0,3.3,3.3,3.3,0
8175.0,3.3,3.3,3.3,0
8177.0,3.3,0.0,3.3,0
8178.0,2.64,0.0,0.0,0
8180.0,0.0,0.0,0.0,0
8182.0,0.0,2.13,0.0,0
8184.0,0.0,3.3,0.0,0
8186.0,0.0,3.3,0.79,0
8188.0,3.3,3.3,3.3,0
8190.0,3.3,3.3,3.3,0
8193.0,0.0,3.3,3.3,0
8195.0,0.0,3.3,3.3,0
8197.0,0.0,0.0,3.3,0
8199.0,0.0,0.0,0.0,0
8201.0,0.0,0.0,0.0,0
8203.0,3.01,3.3,0.0,0
8205.0,0.0,3.3,0.0,0
8207.0,0.0,3.3,3.3,0
8209.0,0.0,3.3,3.3,0
8211.0,0.0,3.3,3.3,0
8213.0,0.0,3.3,3.3,0
8215.0,0.0,3.3,3.3,0
8217.0,0.0,0.0,3.3,0
8219.0,0.0,0.0,0.0,0
8221.0,0.0,0.0,0.0,0
8222.0,0.0,1.14,0.0,0
8224.0,0.0,3.3,0.0,0
8226.0,0.0,3.3,2.89,0
8228.0,0.0,3.3,3.3,0
8230.0,0.0,3.3,3.3,0
8232.0,0.0,3.3,3.3,0
8235.0,0.0,3.3,3.3,0
8237.0,0.0,0.0,3.27,0
8239.0,0.0,0.0,0.0,0
8241.0,0.0,0.0,0.0,0
8243.0,0.0,0.28,0.0,0
8245.0,0.0,3.3,0.0,0
8247.0,0.0,3.3,1.98,0
8249.0,0.0,3.3,3.3,0
8251.0,0.0,3.3,3.3,0
8253.0,0.0,3.3,3.3,0
8255.0,0.0,3.3,3.3,0
8257.0,0.0,0.0,1.86,0
8259.0,0.0,0.0,0.0,0
8261.0,0.0,1.0,0.0,0
8263.0,0.0,3.3,0.0,0
8264.0,0.0,3.3,0.0,0
8266.0,0.0,3.3,1.44,0
8268.0,0.0,3.3,3.3,0
8270.0,0.0,3.3,3.3,0
8272.0,0.0,3.3,3.3,0
8274.0,0.0,3.3,3.3,0
8276.0,3.3,0.0,0.0,0
8279.0,0.0,0.0,0.0,0
8281.0,0.0,0.0,0.0,0
8283.0,0.0,0.0,0.0,0
8285.0,0.0,3.3,0.0,0
8287.0,0.0,3.3,0.62,0
8289.0,0.0,3.3,3.3,0
8291.0,0.0,3.3,3.3,0
8293.0,0.0,3.3,3.3,0
8295.0,0.0,3.3,3.3,0
8297.0,0.0,0.0,0.0,0
8299.0,0.0,0.0,0.0,0
8301.0,0.0,0.0,0.0,0
8303.0,0.0,3.3,0.0,0
8305.0,0.0,3.3,0.0,0
8306.0,0.0,3.3,0.62,0
8308.0,3.3,3.3,3.3,0
8310.0,3.3,3.3,3.3,0
8312.0,3.3,3.3,3.3,0
8314.0,0.0,3.3,3.3,0
8316.0,0.0,0.07,0.0,0
8318.0,0.0,0.33,0.0,0
8321.0,0.0,3.02,0.0,0
8323.0,0.0,3.3,0.0,0
8325.0,0.0,3.3,0.0,0
8327.0,3.3,3.3,0.0,0
8329.0,3.3,3.3,3.3,0
8331.0,3.3,3.3,3.3,0
8333.0,3.3,3.3,3.3,0
8335.0,0.0,3.3,3.3,0
8337.0,0.0,3.3,0.0,0
8339.0,0.0,1.64,0.0,0
8341.0,0.0,3.3,0.0,0
8343.0,0.0,3.3,0.0,0
8345.0,0.0,3.3,0.0,0
8347.0,0.0,3.3,0.0,0
8349.0,0.0,3.3,3.3,0
8350.0,0.0,3.3,3.3,0
8352.0,0.0,3.3,3.3,0
8354.0,0.0,3.3,3.3,0
8356.0,0.0,0.09,0.0,0
8358.0,0.0,0.09,0.0,0
8360.0,3.3,3.3,0.0,0
8363.0,3.3,3.3,0.0,0
8365.0,3.3,3.3,0.0,0
8367.0,3.3,3.3,0.0,0
8369.0,3.3,3.3,3.3,0
8371.0,3.3,3.3,3.3,0
8373.0,3.3,3.3,3.3,0
8375.0,3.3,3.3,3.3,0
8377.0,3.3,0.0,0.0,0
8379.0,3.3,0.0,0.0,0
8381.0,3.3,0.96,0.0,0
8383.0,3.3,3.3,0.0,0
8385.0,1.53,3.3,0.0,0
8387.0,0.0,3.3,0.0,0
8389.0,0.0,3.3,0.43,0
8391.0,0.0,3.3,3.3,0
8392.0,0.0,3.3,3.3,0
8394.0,0.0,3.3,3.3,0
8396.0,0.0,0.0,0.0,0
8398.0,0.0,0.0,0.0,0
8400.0,0.0,0.0,0.0,0
8402.0,0.0,3.3,0.0,0
8404.0,0.0,3.3,0.0,0
8407.0,0.0,3.3,0.0,0
8409.0,0.0,3.3,0.0,0
8411.0,0.0,3.3,3.3,0
8413.0,0.0,3.3,3.3,0
8415.0,0.0,3.3,3.3,0
8417.0,0.0,0.0,0.0,0
8419.0,0.0,0.0,0.0,0
8421.0,0.0,0.08,0.0,0
8423.0,0.0,3.3,0.0,0
8425.0,0.0,3.3,0.0,0
8427.0,0.0,3.3,0.0,0
8429.0,0.0,3.3,0.0,0
8431.0,0.0,3.3,3.3,0
8433.0,0.0,3.3,3.3,0
8434.0,0.57,3.3,0.0,0
8436.0,3.3,0.0,0.0,0
8438.0,3.3,3.3,0.0,0
8440.0,0.0,3.3,0.0,0
8442.0,0.0,3.3,0.0,0
8444.0,0.0,3.3,0.0,0
8446.0,0.0,3.3,0.0,0
8449.0,0.0,3.3,0.0,0
8451.0,0.0,3.3,0.0,0
8453.0,0.0,3.3,0.0,0
8455.0,0.0,3.3,0.02,0
8457.0,0.0,3.3,0.34,0
8459.0,3.3,3.3,0.7,0
8461.0,3.3,3.3,1.06,0
8463.0,0.0,3.3,1.4,0
8465.0,0.0,3.3,1.71,0
8467.0,0.0,3.3,2.02,0
8469.0,0.0,3.3,2.29,0
8471.0,0.0,3.3,2.57,0
8473.0,0.0,3.3,2.81,0
8475.0,0.0,3.3,2.99,0
8477.0,0.0,3.3,3.15,0
8478.0,0.0,3.3,3.29,0
8480.0,0.0,3.3,3.3,0
8482.0,0.0,3.3,3.3,0
8484.0,0.0,3.3,3.3,0
8486.0,0.0,3.3,3.3,0
8488.0,0.0,3.3,3.3,0
8491.0,0.0,3.3,3.3,0
8493.0,0.0,3.3,3.3,0
8495.0,0.0,3.3,3.3,0
8497.0,0.0,3.15,3.3,0
8499.0,0.0,3.3,3.3,0
8501.0,0.0,3.3,3.3,0
8503.0,0.0,3.3,3.3,0
8505.0,0.0,3.3,3.3,0
8507.0,0.0,3.3,3.3,0
8509.0,0.0,3.3,3.3,0
8511.0,0.0,3.3,3.3,0
8513.0,0.0,3.3,3.3,0
8515.0,0.0,0.0,3.3,0
8517.0,0.0,0.0,3.3,0
8519.0,0.0,0.0,3.3,0
8520.0,0.0,0.0,3.3,0
8522.0,0.0,0.0,3.3,0
8524.0,0.0,1.79,3.3,0
8526.0,0.0,3.3,3.3,0
8528.0,0.0,3.3,3.3,0
8530.0,0.0,3.3,3.3,0
8532.0,0.0,3.3,3.3,0
8535.0,0.0,3.3,3.3,0
8537.0,0.0,1.19,3.3,0
8539.0,0.0,3.3,3.3,0
8541.0,0.0,3.3,3.3,0
8543.0,0.0,3.3,3.3,0
8545.0,0.0,3.3,3.3,0
8547.0,0.0,3.3,3.3,0
8549.0,0.0,3.3,3.3,0
8551.0,0.0,3.3,3.3,0
8553.0,0.0,3.3,3.3,0
8555.0,0.0,3.3,3.3,0
8557.0,0.0,0.0,3.3,0
8559.0,0.0,3.3,3.3,0
8561.0,0.0,3.3,3.3,0
8562.0,0.0,3.3,3.3,0
8564.0,0.0,3.3,3.3,0
8566.0,0.0,3.3,3.3,0
8568.0,0.0,3.3,3.3,0
8570.0,0.0,3.3,3.3,0
8572.0,0.0,3.3,3.3,0
8574.0,0.0,3.3,3.3,0
8577.0,0.0,3.3,3.3,0
8579.0,0.0,3.3,3.3,0
8581.0,0.0,3.3,3.3,0
8583.0,0.0,3.3,3.3,0
8585.0,0.0,3.3,3.3,0
8587.0,0.0,3.3,3.3,0
8589.0,0.0,3.3,3.3,0
8591.0,0.0,3.3,3.3,0
8593.0,0.0,3.3,3.3,0
8595.0,0.0,0.0,3.3,0
8597.0,0.0,0.0,3.15,0
8599.0,0.0,0.0,3.08,0
8601.0,0.0,0.0,3.15,0
8603.0,0.0,0.0,3.23,0
8605.0,0.0,0.0,3.3,0
8606.0,0.0,0.0,3.3,0
8608.0,0.0,0.0,3.3,0
8610.0,0.0,0.0,3.3,0
8612.0,0.0,0.0,3.3,0
8614.0,0.0,0.0,3.3,0
8616.0,0.0,0.0,2.86,0
8619.0,0.0,0.0,2.83,0
8621.0,0.0,0.0,2.92,0
8623.0,0.0,0.0,3.01,0
8625.0,0.0,0.0,3.1,0
8627.0,0.0,0.0,3.19,0
8629.0,0.0,0.0,3.29,0
8631.0,0.0,0.0,3.3,0
8633.0,0.0,0.0,3.3,0
8635.0,0.0,0.0,3.3,0
8637.0,0.0,0.0,2.11,0
8639.0,3.3,0.0,1.82,0
8641.0,3.3,0.0,1.94,0
8643.0,0.0,0.0,2.1,0
8645.0,0.0,0.0,2.27,0
8647.0,0.0,0.0,2.44,0
8648.0,0.0,0.0,3.3,0
8650.0,0.04,0.0,3.3,0
8652.0,1.08,0.0,3.3,0
8654.0,2.28,0.0,3.3,0
8656.0,3.3,0.0,0.0,0
8658.0,3.3,0.0,0.0,0
8660.0,3.3,0.0,0.0,0
8663.0,3.0,0.0,0.0,0
8665.0,3.3,0.0,0.0,0
8667.0,3.3,0.0,0.07,0
8669.0,3.3,0.0,3.3,0
8671.0,3.3,0.0,3.3,0
8673.0,3.3,0.0,3.3,0
8675.0,3.3,0.0,3.3,0
8677.0,3.3,0.0,0.0,0
8679.0,3.3,0.0,0.0,0
8681.0,3.3,0.0,0.0,0
8683.0,3.3,0.0,0.0,0
8685.0,3.3,0.0,0.0,0
8687.0,3.3,0.0,0.0,0
8689.0,3.3,0.0,3.3,0
8690.0,3.3,0.0,3.3,0
8692.0,3.3,0.0,3.3,0
8694.0,3.3,0.0,3.3,0
8696.0,3.3,0.0,0.0,0
8698.0,3.3,0.0,0.0,0
8700.0,3.3,0.0,0.0,0
8702.0,3.3,0.0,0.0,0
8705.0,0.0,0.0,0.0,0
8707.0,0.0,0.0,3.3,0
8709.0,0.07,0.0,3.3,0
8711.0,1.18,0.0,3.3,0
8713.0,2.41,0.0,3.3,0
8715.0,3.3,0.0,3.3,0
8717.0,3.3,0.0,0.0,0
8719.0,3.3,0.0,0.0,0
8721.0,3.3,0.0,0.0,0
8723.0,3.3,0.0,0.0,0
8725.0,0.0,0.0,1.91,0
8727.0,0.0,0.0,3.3,0
8729.0,0.0,0.0,3.3,0
8731.0,0.0,0.0,3.3,0
8733.0,0.0,0.0,3.3,0
8734.0,0.0,0.0,3.3,0
8736.0,3.3,0.0,0.0,0
8738.0,3.3,0.0,0.0,0
8740.0,3.3,0.0,0.0,0
8742.0,3.3,0.0,0.0,0
8744.0,0.0,0.0,0.0,0
8747.0,0.0,0.0,3.3,0
8749.0,0.0,0.0,3.3,0
8751.0,0.0,0.0,3.3,0
8753.0,0.0,0.0,3.3,0
8755.0,0.0,0.0,3.3,0
8757.0,3.3,0.0,0.0,0
8759.0,3.3,0.0,0.0,0
8761.0,3.3,1.03,0.0,0
8763.0,3.3,0.88,0.0,0
8765.0,0.0,2.61,0.0,0
8767.0,0.0,3.3,0.0,0
8769.0,0.0,3.3,0.0,0
8771.0,0.0,3.3,0.0,0
8773.0,0.0,0.0,0.0,0
8775.0,0.0,0.0,0.0,0
8776.0,3.3,0.0,0.0,0
8778.0,3.3,2.28,0.0,0
8780.0,3.3,3.3,0.0,0
8782.0,3.3,3.3,0.0,0
8784.0,0.0,3.3,0.0,0
8786.0,0.0,3.3,0.0,0
8788.0,0.0,3.3,0.0,0
8791.0,0.0,3.3,0.0,0
8793.0,0.0,3.3,0.0,0
8795.0,0.0,3.3,0.11,0
8797.0,3.3,2.62,0.43,0
8799.0,3.3,3.3,0.76,0
8801.0,3.3,3.3,1.08,0
8803.0,0.0,3.3,1.41,0
8805.0,0.0,3.3,1.69,0
8807.0,0.0,3.3,1.96,0
8809.0,0.0,3.3,2.22,0
8811.0,0.0,3.3,2.46,0
8813.0,0.0,3.3,2.66,0
8815.0,0.0,3.3,2.84,0
8817.0,3.3,0.43,2.97,0
8818.0,3.3,3.3,3.12,0
8820.0,3.3,3.3,3.27,0
8822.0,0.0,3.3,3.3,0
8824.0,0.0,3.3,3.3,0
8826.0,0.0,3.3,3.3,0
8828.0,0.0,3.3,3.3,0
8830.0,0.0,3.3,3.3,0
8833.0,0.0,3.3,3.3,0
8835.0,0.0,0.36,3.3,0
8837.0,0.71,1.42,3.3,0
8839.0,3.3,3.3,3.3,0
8841.0,3.3,3.3,3.3,0
8843.0,0.0,3.3,3.3,0
8845.0,0.0,3.3,3.3,0
8847.0,0.0,3.3,3.3,0
8849.0,0.0,3.3,3.3,0
8851.0,0.0,3.3,3.3,0
8853.0,0.0,3.3,3.3,0
8855.0,0.0,0.0,3.3,0
8857.0,3.3,0.69,3.3,0
8859.0,3.3,3.3,3.3,0
8861.0,3.3,3.3,3.3,0
8862.0,0.0,3.3,3.3,0
8864.0,0.0,3.3,3.3,0
8866.0,0.0,3.3,3.3,0
8868.0,0.0,3.3,3.3,0
8870.0,0.0,3.3,3.3,0
8872.0,0.0,3.3,3.3,0
8875.0,0.56,0.89,3.3,0
8877.0,3.3,1.91,3.3,0
8879.0,3.3,3.3,3.3,0
8881.0,3.3,3.3,3.3,0
8883.0,0.0,3.3,3.3,0
8885.0,0.0,3.3,3.3,0
8887.0,0.0,3.3,3.3,0
8889.0,0.94,3.3,3.3,0
8891.0,2.25,3.3,3.3,0
8893.0,3.3,0.0,3.3,0
8895.0,3.3,0.0,3.3,0
8897.0,3.3,0.0,3.3,0
8899.0,3.3,0.71,3.3,0
8901.0,3.3,2.72,3.3,0
8903.0,1.99,0.62,3.3,0
8904.0,1.79,3.3,3.3,0
8906.0,2.87,3.3,3.3,0
8908.0,3.3,3.3,3.3,0
8910.0,3.3,3.3,3.3,0
8912.0,3.3,0.0,3.3,0
8914.0,3.3,0.0,3.3,0
8916.0,3.3,0.0,3.3,0
8919.0,3.3,1.41,3.3,0
8921.0,3.3,2.71,3.3,0
8923.0,3.3,3.07,3.3,0
8925.0,3.3,3.3,3.3,0
8927.0,3.3,3.3,3.3,0
8929.0,3.3,3.3,3.3,0
8931.0,3.3,3.3,3.3,0
8933.0,3.3,0.0,3.3,0
8935.0,3.3,0.0,3.3,0
8937.0,3.3,0.0,3.3,0
8939.0,3.3,1.21,3.3,0
8941.0,3.3,1.22,3.3,0
8943.0,3.3,3.05,3.3,0
8945.0,3.3,3.3,3.3,0
8946.0,3.3,3.3,3.3,0
8948.0,3.3,3.3,3.3,0
8950.0,3.3,2.68,3.3,0
8952.0,3.3,0.0,3.3,0
8954.0,3.3,0.0,3.3,0
8956.0,3.3,0.0,3.3,0
8958.0,3.3,1.92,3.3,0
8961.0,3.3,2.25,3.3,0
8963.0,3.3,3.3,3.3,0
8965.0,2.6,3.3,3.3,0
8967.0,3.3,3.3,3.3,0
8969.0,3.3,3.3,3.3,0
8971.0,3.3,3.3,3.3,0
8973.0,3.3,1.38,3.3,0
8975.0,3.3,0.0,3.3,0
8977.0,3.3,0.7,3.3,0
8979.0,3.3,3.04,3.3,0
8981.0,3.3,3.3,3.3,0
8983.0,1.2,3.3,3.3,0
8985.0,0.0,3.3,3.3,0
8987.0,0.0,3.3,3.3,0
8989.0,0.0,3.3,3.3,0
8990.0,0.0,3.3,3.3,0
8992.0,0.0,3.3,3.3,0
8994.0,0.48,0.0,3.3,0
8996.0,3.3,2.78,3.3,0
8998.0,3.3,3.3,3.3,0
9000.0,3.3,3.3,3.3,0
9003.0,3.3,3.3,3.3,0
9005.0,3.3,3.3,3.3,0
9007.0,3.3,3.3,3.3,0
9009.0,0.0,3.3,3.3,0
9011.0,3.3,3.3,3.3,0
9013.0,3.3,3.3,3.3,0
9015.0,3.3,1.9,3.3,0
9017.0,3.3,3.3,3.3,0
9019.0,3.3,3.3,3.3,0
9021.0,3.3,3.3,3.3,0
9023.0,3.3,3.3,3.3,0
9025.0,3.3,3.3,3.3,0
9027.0,3.3,3.3,3.3,0
9029.0,3.3,3.3,3.3,0
9031.0,3.3,3.3,3.3,0
9032.0,3.3,1.09,3.3,0
9034.0,3.3,0.0,0.65,0
9036.0,3.3,0.51,0.26,0
9038.0,3.3,2.47,3.3,0
9040.0,3.3,3.3,3.3,0
9042.0,3.3,3.11,3.3,0
9044.0,3.3,3.3,3.3,0
9047.0,3.3,3.3,3.3,0
9049.0,3.3,3.3,3.3,0
9051.0,3.3,0.0,3.3,0
9053.0,3.3,0.0,3.3,0
9055.0,3.3,0.0,3.3,0
9057.0,3.3,0.0,3.3,0
9059.0,3.3,0.0,3.3,0
9061.0,3.3,0.0,3.3,0
9063.0,3.3,0.0,3.3,0
9065.0,3.3,0.0,3.3,0
9067.0,3.3,0.43,3.3,0
9069.0,3.3,0.12,3.3,0
9071.0,3.3,0.0,3.3,0
9073.0,3.3,0.0,3.3,0
9074.0,3.3,0.0,3.3,0
9076.0,3.3,0.0,3.3,0
9078.0,3.3,0.0,3.3,0
9080.0,3.3,0.0,3.3,0
9082.0,3.3,0.0,3.3,0
9084.0,3.3,0.0,3.3,0
9086.0,3.3,1.24,3.3,0
9089.0,3.3,2.74,3.3,0
9091.0,3.3,0.0,3.3,0
9093.0,3.3,0.0,3.3,0
9095.0,3.3,0.0,3.3,0
9097.0,3.3,0.0,3.3,0
9099.0,3.3,0.0,3.3,0
9101.0,3.3,0.0,3.3,0
9103.0,3.3,0.0,3.3,0
9105.0,3.3,0.24,3.3,0
9107.0,3.3,3.3,3.3,0
9109.0,3.3,3.3,3.3,0
9111.0,3.3,2.02,3.3,0
9113.0,3.3,0.0,3.3,0
9115.0,3.3,0.0,3.3,0
9117.0,3.3,0.0,3.3,0
9118.0,3.3,0.0,3.3,0
9120.0,3.3,0.0,3.3,0
9122.0,3.3,0.0,3.3,0
9124.0,3.3,2.2,3.3,0
9126.0,3.3,3.3,3.3,0
9128.0,3.3,3.3,3.3,0
9131.0,3.3,3.3,3.3,0
9133.0,3.3,0.0,3.3,0
9135.0,3.3,0.0,3.3,0
9137.0,3.3,0.0,3.3,0
9139.0,3.3,0.0,3.3,0
9141.0,3.3,0.38,3.3,0
9143.0,3.3,2.1,3.3,0
9145.0,3.3,3.3,3.3,0
9147.0,3.3,3.3,3.3,0
9149.0,3.3,3.3,3.3,0
9151.0,3.3,3.3,3.3,0
9153.0,3.3,1.56,3.3,0
9155.0,3.3,0.0,3.3,0
9157.0,3.3,0.0,3.3,0
9159.0,3.3,1.85,3.3,0
9160.0,3.3,3.3,3.3,0
9162.0,3.3,3.3,3.3,0
9164.0,3.3,3.3,3.3,0
9166.0,3.3,3.3,3.3,0
9168.0,3.3,3.3,3.3,0
9170.0,3.3,3.3,3.3,0
9172.0,3.3,3.26,3.3,0
9175.0,3.3,0.0,3.3,0
9177.0,3.3,0.0,3.3,0
9179.0,3.3,1.86,3.3,0
9181.0,3.3,3.3,3.3,0
9183.0,3.3,3.3,3.3,0
9185.0,3.3,3.3,3.3,0
9187.0,3.3,3.3,3.3,0
9189.0,3.3,3.3,3.3,0
9191.0,3.3,3.3,3.3,0
9193.0,3.3,3.3,3.3,0
9195.0,3.3,0.0,3.3,0
9197.0,3.3,0.0,3.3,0
9199.0,3.3,1.56,3.3,0
9201.0,3.3,3.3,3.3,0
9202.0,3.3,3.3,3.3,0
9204.0,3.3,3.3,3.3,0
9206.0,3.3,3.3,3.3,0
9208.0,3.3,3.3,3.3,0
9210.0,3.3,3.3,3.3,0
9212.0,3.3,3.3,3.3,0
9214.0,3.3,0.0,3.3,0
9217.0,3.3,0.22,3.3,0
9219.0,3.3,1.85,3.3,0
9221.0,3.3,3.3,3.3,0
9223.0,3.3,3.3,3.3,0
9225.0,3.3,3.3,3.3,0
9227.0,3.3,3.3,3.3,0
9229.0,3.3,3.3,3.3,0
9231.0,3.3,3.3,3.3,0
9233.0,3.3,3.3,3.3,0
9235.0,3.3,0.0,3.3,0
9237.0,3.3,0.0,3.3,0
9239.0,3.3,0.65,3.3,0
9241.0,3.3,3.3,3.3,0
9243.0,3.3,3.3,3.3,0
9245.0,3.3,3.3,3.3,0
9246.0,3.3,3.3,3.3,0
9248.0,3.3,3.3,3.3,0
9250.0,3.3,3.3,3.3,0
9252.0,3.3,3.3,3.3,0
9254.0,3.3,0.0,3.3,0
9256.0,3.3,0.02,3.3,0
9259.0,3.3,1.78,3.3,0
9261.0,3.3,3.3,3.3,0
9263.0,3.3,3.3,3.3,0
9265.0,3.3,3.3,3.3,0
9267.0,3.3,3.3,3.3,0
9269.0,3.3,3.3,3.3,0
9271.0,3.3,3.3,3.3,0
9273.0,3.3,1.15,3.3,0
9275.0,3.3,0.0,3.3,0
9277.0,3.3,0.0,3.3,0
9279.0,3.3,0.0,3.3,0
9281.0,3.3,2.47,3.3,0
9283.0,3.3,3.3,3.3,0
9285.0,3.3,3.3,3.3,0
9287.0,3.3,3.3,3.3,0
9288.0,3.3,3.3,3.3,0
9290.0,3.3,3.3,3.3,0
9292.0,3.3,0.0,3.3,0
9294.0,3.3,0.0,3.3,0
9296.0,3.3,0.0,3.3,0
9298.0,3.3,0.0,3.3,0
9300.0,3.3,0.54,3.3,0
9303.0,3.3,1.06,3.3,0
9305.0,3.3,3.3,3.3,0
9307.0,3.3,3.3,3.3,0
9309.0,3.3,3.3,3.3,0
9311.0,3.3,3.3,3.3,0
9313.0,3.3,0.0,3.3,0
9315.0,3.3,0.0,3.3,0
9317.0,3.3,0.0,3.3,0
9319.0,3.3,0.0,3.3,0
9321.0,3.3,0.0,3.3,0
9323.0,3.3,2.59,3.3,0
9325.0,2.09,3.3,3.3,0
9327.0,3.3,3.3,3.3,0
9329.0,0.79,3.3,3.3,0
9330.0,0.99,3.3,3.3,0
9332.0,1.22,3.26,3.3,0
9334.0,1.93,0.0,3.3,0
9336.0,0.15,0.0,3.3,0
9338.0,0.0,3.22,3.3,0
9340.0,0.0,3.3,3.3,0
9342.0,0.0,3.3,3.3,0
9345.0,0.0,3.3,3.3,0
9347.0,0.0,3.3,3.3,0
9349.0,0.0,3.3,3.3,0
9351.0,0.0,3.3,3.3,0
9353.0,0.0,3.3,3.3,0
9355.0,0.0,0.0,3.3,0
9357.0,0.0,0.0,3.3,0
9359.0,0.02,0.94,3.3,0
9361.0,0.0,3.3,3.3,0
9363.0,0.0,3.3,3.3,0
9365.0,0.0,3.3,3.3,0
9367.0,0.0,3.3,3.3,0
9369.0,0.0,3.3,3.3,0
9371.0,0.0,3.3,3.3,0
9373.0,0.0,2.89,3.3,0
9374.0,0.0,0.0,3.3,0
9376.0,0.0,0.37,3.3,0
9378.0,0.0,3.3,3.3,0
9380.0,0.0,3.3,3.3,0
9382.0,0.0,3.3,3.3,0
9384.0,0.0,3.3,3.3,0
9387.0,0.0,3.3,3.3,0
9389.0,0.0,3.3,3.3,0
9391.0,0.0,3.3,3.3,0
9393.0,0.0,3.3,3.3,0
9395.0,0.0,0.0,0.0,0
9397.0,0.0,3.3,0.0,0
9399.0,0.0,3.3,0.0,0
9401.0,0.0,3.3,0.0,0
9403.0,0.0,3.3,0.0,0
9405.0,0.0,3.3,0.0,0
9407.0,0.0,3.3,0.0,0
9409.0,0.0,3.3,0.0,0
9411.0,0.0,3.3,0.0,0
9413.0,0.0,3.3,0.0,0
9415.0,0.0,2.58,0.0,0
9416.0,0.0,3.3,0.0,0
9418.0,0.0,3.3,0.0,0
9420.0,0.0,3.3,0.0,0
9422.0,0.0,3.3,0.0,0
9424.0,0.0,3.3,0.0,0
9426.0,0.0,3.3,0.0,0
9428.0,0.0,3.3,0.0,0
9431.0,0.0,3.3,0.0,0
9433.0,0.0,2.65,0.0,0
9435.0,0.0,0.0,0.0,0
9437.0,0.0,0.0,0.0,0
9439.0,0.0,2.19,0.0,0
9441.0,0.0,3.3,0.0,0
9443.0,0.0,3.3,0.0,0
9445.0,0.0,3.3,0.0,0
9447.0,0.0,3.3,0.0,0
9449.0,0.0,3.3,0.0,0
9451.0,0.0,2.69,0.0,0
9453.0,0.0,0.0,0.0,0
9455.0,0.0,0.0,0.0,0
9457.0,0.0,0.0,0.0,0
9458.0,0.0,0.0,0.0,0
9460.0,0.0,0.0,0.0,0
9462.0,0.0,0.0,0.0,0
9464.0,0.0,1.56,0.0,0
9466.0,0.0,3.3,0.0,0
9468.0,0.0,3.3,0.0,0
9470.0,0.0,0.0,0.0,0
9473.0,0.0,0.0,0.0,0
9475.0,0.0,0.0,0.0,0
9477.0,0.0,0.0,0.0,0
9479.0,0.0,0.0,0.0,0
9481.0,0.0,0.0,0.0,0
9483.0,0.0,0.19,0.0,0
9485.0,0.0,3.3,0.0,0
9487.0,0.0,3.3,0.0,0
9489.0,0.0,3.3,0.0,0
9491.0,0.0,2.8,0.0,0
9493.0,0.0,0.0,0.0,0
9495.0,0.0,0.0,0.0,0
9497.0,0.0,0.0,0.0,0
9499.0,0.0,0.0,0.0,0
9501.0,0.0,1.34,0.0,0
9502.0,0.0,3.3,0.0,0
9504.0,0.0,3.3,0.0,0
9506.0,0.0,3.3,0.0,0
9508.0,0.0,3.3,0.0,0
9510.0,0.0,3.3,0.0,0
9512.0,0.0,0.71,0.0,0
9515.0,0.0,0.0,0.0,0
9517.0,0.0,0.0,0.0,0
9519.0,0.0,0.71,0.0,0
9521.0,0.0,3.3,0.0,0
9523.0,0.0,3.3,0.0,0
9525.0,0.0,3.3,0.0,0
9527.0,0.0,3.3,0.0,0
9529.0,0.0,3.3,0.0,0
9531.0,1.34,3.3,0.0,0
9533.0,2.52,0.86,0.0,0
9535.0,3.3,0.0,0.0,0
9537.0,3.3,0.0,0.0,0
9539.0,2.07,0.65,0.0,0
9541.0,2.3,3.3,0.0,0
9543.0,2.69,3.3,0.0,0
9544.0,2.76,3.3,0.0,0
9546.0,2.94,3.3,0.0,0
9548.0,2.6,3.3,0.0,0
9550.0,3.3,3.3,0.0,0
9552.0,3.3,0.33,0.0,0
9554.0,3.3,0.0,0.0,0
9556.0,3.3,0.0,0.0,0
9559.0,3.3,0.15,0.0,0
9561.0,3.3,2.46,0.0,0
9563.0,3.28,3.3,0.0,0
9565.0,3.3,3.3,0.0,0
9567.0,3.3,3.3,0.0,0
9569.0,3.3,3.3,0.0,0
9571.0,3.3,3.3,0.0,0
9573.0,3.3,0.0,0.0,0
9575.0,3.3,0.0,0.0,0
9577.0,3.3,0.0,0.0,0
9579.0,3.3,0.0,0.0,0
9581.0,3.3,0.34,0.0,0
9583.0,3.3,2.76,0.0,0
9585.0,3.3,3.3,0.0,0
9586.0,3.3,3.3,0.0,0
9588.0,3.3,3.3,0.0,0
9590.0,3.3,2.43,0.0,0
9592.0,3.3,0.0,0.0,0
9594.0,3.3,0.0,0.0,0
9596.0,3.3,0.0,0.0,0
9598.0,3.3,0.0,0.0,0
9601.0,3.3,0.0,0.0,0
9603.0,3.3,1.69,0.0,0
9605.0,3.3,3.3,0.0,0
9607.0,3.3,3.3,0.0,0
9609.0,3.3,3.3,0.0,0
9611.0,3.3,0.0,0.0,0
9613.0,3.3,0.0,0.0,0
9615.0,3.3,0.0,0.0,0
9617.0,3.3,0.0,0.0,0
9619.0,3.3,0.0,0.0,0
9621.0,3.3,0.2,0.0,0
9623.0,3.3,2.93,0.0,0
9625.0,3.3,3.3,0.0,0
9627.0,3.3,3.3,0.0,0
9629.0,3.3,3.3,0.0,0
9630.0,3.3,2.29,0.0,0
9632.0,3.3,0.0,0.0,0
9634.0,3.3,0.0,0.0,0
9636.0,3.3,0.0,0.0,0
9638.0,3.3,0.0,0.0,0
9640.0,3.3,0.11,0.0,0
9643.0,3.3,1.54,0.0,0
9645.0,3.3,3.3,0.0,0
9647.0,3.3,3.3,0.0,0
9649.0,3.16,3.3,0.0,0
9651.0,3.3,0.21,0.0,0
9653.0,3.3,0.0,0.0,0
9655.0,3.3,0.0,0.0,0
9657.0,3.3,0.0,0.0,0
9659.0,3.3,0.0,0.0,0
9661.0,3.3,0.0,0.0,0
9663.0,2.02,0.0,0.0,0
9665.0,2.82,0.0,0.0,0
9667.0,2.72,3.3,0.0,0
9669.0,2.34,3.3,0.0,0
9671.0,3.3,0.0,0.0,0
9672.0,3.3,0.0,0.0,0
9674.0,3.3,0.0,0.0,0
9676.0,3.3,0.0,0.0,0
9678.0,3.3,0.0,0.0,0
9680.0,3.17,0.0,0.0,0
9682.0,2.83,0.0,0.0,0
9684.0,3.0,2.44,0.0,0
9687.0,3.12,3.3,0.0,0
9689.0,2.79,3.3,0.0,0
9691.0,3.3,0.0,0.0,0
9693.0,3.3,0.0,0.0,0
9695.0,3.3,0.0,0.0,0
9697.0,3.3,0.0,0.0,0
9699.0,3.3,0.0,0.0,0
9701.0,3.13,0.0,0.0,0
9703.0,2.77,0.36,0.0,0
9705.0,2.29,3.3,0.0,0
9707.0,0.97,3.3,0.0,0
9709.0,1.09,3.3,0.0,0
9711.0,1.33,0.0,0.0,0
9713.0,2.62,0.0,0.0,0
9714.0,3.3,0.0,0.0,0
9716.0,2.23,0.0,0.0,0
9718.0,1.06,0.0,0.0,0
9720.0,0.22,0.18,0.0,0
9722.0,1.43,3.3,0.22,0
9724.0,1.68,3.3,1.29,0
9726.0,1.42,3.3,2.03,0
9729.0,1.58,3.3,2.61,0
9731.0,2.57,2.33,2.74,0
9733.0,3.3,0.0,2.8,0
9735.0,3.3,0.0,0.6,0
9737.0,3.27,0.0,0.26,0
9739.0,1.65,0.0,0.0,0
9741.0,0.99,1.59,0.15,0
9743.0,1.67,3.3,2.08,0
9745.0,1.34,3.3,2.94,0
9747.0,1.13,3.3,3.3,0
9749.0,0.73,3.3,3.02,0
9751.0,2.5,3.24,2.85,0
9753.0,3.3,0.0,1.4,0
9755.0,3.3,0.0,0.0,0
9757.0,3.3,0.0,0.0,0
9758.0,2.07,0.0,0.0,0
9760.0,1.73,2.44,0.0,0
9762.0,2.2,3.3,0.0,0
9764.0,1.74,3.3,0.0,0
9766.0,1.89,3.3,0.0,0
9768.0,1.45,3.3,0.0,0
9771.0,1.55,3.3,0.0,0
9773.0,2.47,0.0,0.0,0
9775.0,3.3,0.0,0.0,0
9777.0,2.46,0.0,0.0,0
9779.0,1.27,0.48,0.0,0
9781.0,1.78,3.3,0.0,0
9783.0,1.25,3.3,0.0,0
9785.0,1.51,3.3,0.0,0
9787.0,1.59,3.3,0.0,0
9789.0,1.72,3.3,0.0,0
9791.0,3.3,3.3,0.0,0
9793.0,3.3,0.0,0.0,0
9795.0,3.3,0.0,0.0,0
9797.0,3.06,0.0,0.0,0
9799.0,1.14,1.27,0.0,0
9800.0,1.25,3.3,0.0,0
9802.0,0.52,3.3,0.0,0
9804.0,1.18,3.3,0.0,0
9806.0,1.03,3.3,0.0,0
9808.0,0.84,3.3,0.0,0
9810.0,2.95,3.3,0.0,0
9812.0,3.21,0.0,0.0,0
9815.0,3.3,0.0,0.0,0
9817.0,2.26,0.0,0.0,0
9819.0,1.21,1.46,0.0,0
9821.0,0.58,3.3,0.0,0
9823.0,0.65,3.3,0.0,0
9825.0,1.31,3.3,0.0,0
9827.0,1.0,3.3,0.0,0
9829.0,1.56,3.3,0.0,0
9831.0,2.73,3.3,0.0,0
9833.0,3.3,0.0,0.0,0
9835.0,3.3,0.0,0.0,0
9837.0,3.22,0.0,0.0,0
9839.0,2.39,1.94,0.0,0
9841.0,1.13,3.3,0.0,0
9842.0,1.62,3.3,0.0,0
9844.0,2.09,3.3,0.0,0
9846.0,1.47,3.3,0.0,0
9848.0,1.73,3.3,0.0,0
9850.0,2.66,1.37,0.0,0
9852.0,3.3,0.0,0.0,0
9854.0,3.3,0.0,0.0,0
9857.0,3.3,0.0,0.0,0
9859.0,2.99,0.0,0.0,0
9861.0,2.67,0.86,0.0,0
9863.0,2.93,3.3,0.0,0
9865.0,2.7,3.3,0.0,0
9867.0,2.53,3.3,0.0,0
9869.0,3.28,3.3,0.0,0
9871.0,3.23,0.0,0.0,0
9873.0,3.3,0.0,0.0,0
9875.0,3.3,0.0,0.0,0
9877.0,3.3,0.0,0.0,0
9879.0,3.3,0.0,0.0,0
9881.0,3.3,1.99,0.0,0
9883.0,3.3,3.3,0.0,0
9885.0,3.3,3.3,0.0,0
9886.0,3.3,3.3,0.0,0
9888.0,3.3,3.3,0.0,0
9890.0,3.3,3.3,0.0,0
9892.0,3.3,0.0,0.0,0
9894.0,3.3,0.0,0.0,0
9896.0,3.3,0.0,0.0,0
9899.0,2.67,1.24,0.0,0
9901.0,3.05,3.3,0.0,0
9903.0,2.83,3.3,0.0,0
9905.0,3.13,3.3,0.0,0
9907.0,3.2,3.3,0.0,0
9909.0,3.3,3.3,0.0,0
9911.0,3.3,3.3,0.0,0
9913.0,3.3,0.0,0.0,0
9915.0,3.3,0.0,0.0,0
9917.0,3.3,0.0,0.0,0
9919.0,2.84,1.78,0.0,0
9921.0,2.95,3.3,0.0,0
9923.0,2.33,3.3,0.0,0
9925.0,2.88,3.3,0.0,0
9927.0,2.39,3.3,0.0,0
9928.0,2.45,3.3,0.0,0
9930.0,3.3,2.85,0.0,0
9932.0,3.3,0.0,0.0,0
9934.0,3.3,0.0,0.0,0
9936.0,2.79,0.0,0.0,0
9938.0,1.37,0.77,0.0,0
9940.0,0.85,3.3,0.2,0
9943.0,0.55,3.3,0.95,0
9945.0,1.15,3.3,2.97,0
9947.0,0.6,3.3,3.3,0
9949.0,1.27,3.3,3.3,0
9951.0,2.13,2.06,3.3,0
9953.0,3.3,0.0,3.3,0
9955.0,3.3,0.0,3.3,0
9957.0,2.45,0.0,2.48,0
9959.0,2.44,0.0,3.3,0
9961.0,1.68,0.78,3.3,0
9963.0,1.02,3.11,3.3,0
9965.0,1.88,3.3,3.3,0
9967.0,1.86,3.3,3.3,0
9969.0,2.68,3.3,3.3,0
9971.0,3.12,0.0,3.3,0
9972.0,3.3,0.0,3.3,0
9974.0,3.3,0.0,3.3,0
9976.0,3.3,0.0,3.24,0
9978.0,3.08,0.0,3.3,0
9980.0,1.84,0.67,3.3,0
9982.0,2.82,3.3,3.3,0
9985.0,2.89,3.3,3.3,0
9987.0,2.2,3.3,2.94,0
9989.0,2.89,3.3,3.02,0
9991.0,3.3,0.51,2.72,0
9993.0,3.3,0.0,2.54,0
9995.0,3.3,0.0,1.5,0
9997.0,3.3,0.0,0.0,0
9999.0,2.54,0.0,0.82,0
10001.0,1.75,2.08,1.71,0
10003.0,2.55,3.3,3.15,0
10005.0,2.89,3.3,3.3,0
10007.0,3.13,3.3,3.3,0
10009.0,3.3,3.3,3.3,0
10011.0,3.3,0.0,3.3,0
10013.0,3.3,0.0,3.3,0
10014.0,3.3,0.0,3.3,0
10016.0,3.3,0.0,3.3,0
10018.0,3.3,0.0,3.3,0
10020.0,3.3,1.14,3.3,0
10022.0,3.3,3.3,3.3,0
10024.0,3.3,3.3,3.3,0
10027.0,3.3,3.3,3.3,0
10029.0,3.3,3.3,3.3,0
10031.0,3.3,1.71,3.3,0
10033.0,3.3,0.0,3.3,0
10035.0,3.3,0.0,3.3,0
10037.0,3.3,0.02,3.3,0
10039.0,3.3,1.84,3.3,0
10041.0,3.3,3.3,3.3,0
10043.0,2.88,3.3,3.3,0
10045.0,3.27,3.3,3.3,0
10047.0,3.3,3.3,3.3,0
10049.0,3.3,3.3,3.3,0
10051.0,3.3,3.12,3.3,0
10053.0,3.3,0.0,3.3,0
10055.0,3.3,0.0,3.3,0
10057.0,3.06,0.0,3.3,0
10058.0,2.04,1.35,3.3,0
10060.0,2.58,3.3,3.3,0
10062.0,1.86,3.3,3.3,0
10064.0,1.79,3.3,3.3,0
10066.0,1.06,3.3,3.3,0
10068.0,2.04,3.3,3.3,0
10071.0,3.3,1.79,3.3,0
10073.0,3.3,0.0,3.3,0
10075.0,3.3,0.0,3.3,0
10077.0,3.3,0.0,3.3,0
10079.0,2.64,1.36,3.3,0
10081.0,2.47,3.3,3.3,0
10083.0,1.97,3.3,3.3,0
10085.0,1.66,3.3,3.3,0
10087.0,1.08,3.3,3.3,0
10089.0,2.47,3.3,3.3,0
10091.0,3.3,3.3,3.3,0
10093.0,3.3,0.0,3.3,0
10095.0,3.3,0.0,3.3,0
10097.0,3.3,1.2,3.3,0
10099.0,3.3,3.3,3.3,0
10101.0,2.77,3.3,3.3,0
10102.0,2.31,3.3,3.3,0
10104.0,2.71,3.3,3.3,0
10106.0,2.09,3.3,3.3,0
10108.0,3.19,3.3,3.3,0
10110.0,3.3,3.3,3.3,0
10113.0,3.3,0.0,3.3,0
10115.0,3.3,0.04,3.3,0
10117.0,3.19,2.3,2.68,0
10119.0,2.63,3.3,3.3,0
10121.0,2.13,3.3,3.3,0
10123.0,3.2,3.3,3.3,0
10125.0,3.1,3.3,3.3,0
10127.0,2.76,3.3,3.3,0
10129.0,3.3,3.3,3.3,0
10131.0,3.3,3.3,3.3,0
10133.0,3.3,0.0,3.3,0
10135.0,3.3,0.0,3.3,0
10137.0,3.25,0.87,2.32,0
10139.0,1.99,3.3,3.3,0
10141.0,1.32,3.3,3.3,0
10143.0,1.77,3.3,3.3,0
10145.0,1.58,3.3,3.3,0
10146.0,1.23,3.3,3.3,0
10148.0,1.67,3.3,3.3,0
10150.0,2.5,2.48,3.3,0
10152.0,3.02,0.0,3.3,0
10155.0,3.14,0.0,3.1,0
10157.0,1.5,0.0,0.37,0
10159.0,0.33,1.33,1.45,0
10161.0,0.57,3.3,3.23,0
10163.0,0.11,3.3,3.3,0
10165.0,0.54,3.3,3.3,0
10167.0,0.38,3.3,3.3,0
10169.0,1.2,3.3,3.3,0
10171.0,2.27,2.7,3.12,0
10173.0,2.95,0.0,2.32,0
10175.0,3.3,0.0,1.2,0
10177.0,1.7,0.68,0.0,0
10179.0,0.93,3.3,0.14,0
10181.0,1.15,3.3,1.22,0
10183.0,0.54,3.3,1.35,0
10185.0,1.14,3.3,2.09,0
10187.0,0.65,3.3,1.93,0
10189.0,1.77,3.3,2.62,0
10191.0,2.72,3.04,2.35,0
10192.0,3.3,0.0,2.12,0
10194.0,3.3,0.0,0.25,0
10196.0,2.07,0.5,0.0,0
10199.0,1.88,3.3,0.1,0
10201.0,1.57,3.3,0.63,0
10203.0,2.12,3.3,1.37,0
10205.0,2.64,3.3,1.7,0
10207.0,1.97,3.3,1.38,0
10209.0,3.3,3.3,1.74,0
10211.0,3.3,0.78,1.6,0
10213.0,3.3,0.0,1.15,0
10215.0,3.3,0.0,0.84,0
10217.0,2.87,0.0,0.0,0
10219.0,2.9,2.96,0.06,0
10221.0,2.58,3.3,0.14,0
10223.0,2.95,3.3,0.35,0
10225.0,3.11,3.3,0.4,0
10227.0,2.63,3.3,0.32,0
10229.0,3.3,3.3,0.69,0
10231.0,3.3,0.0,0.38,0
10233.0,3.3,0.0,0.0,0
10235.0,3.3,0.0,0.0,0
10236.0,3.3,0.0,0.0,0
10238.0,3.3,1.7,0.0,0
10241.0,3.3,3.27,0.0,0
10243.0,3.3,3.3,0.0,0
10245.0,3.15,3.3,0.62,0
10247.0,2.77,3.3,0.86,0
10249.0,3.3,3.3,0.95,0
10251.0,3.3,0.0,0.88,0
10253.0,3.3,0.0,0.0,0
10255.0,3.3,0.0,0.0,0
10257.0,3.3,0.0,0.0,0
10259.0,2.81,1.0,0.0,0
10261.0,2.52,3.3,0.0,0
10263.0,2.98,3.3,0.19,0
10265.0,2.61,3.3,0.31,0
10267.0,2.64,3.3,0.41,0
10269.0,3.3,3.3,0.45,0
10271.0,3.3,0.0,0.24,0
10273.0,3.3,0.0,0.0,0
10275.0,3.3,0.0,0.0,0
10277.0,3.3,0.0,0.0,0
10279.0,1.99,0.0,0.0,0
10280.0,2.14,1.05,0.0,0
10283.0,1.82,3.3,0.0,0
10285.0,1.84,3.3,0.0,0
10287.0,1.7,3.3,0.0,0
10289.0,2.21,0.64,0.0,0
10291.0,3.3,0.0,0.0,0
10293.0,3.3,0.0,0.0,0
10295.0,3.3,0.0,0.0,0
10297.0,3.3,0.0,0.0,0
10299.0,3.04,0.0,0.0,0
10301.0,3.3,0.05,0.0,0
10303.0,3.3,2.59,0.0,0
10305.0,3.3,3.3,0.0,0
10307.0,3.15,3.3,0.0,0
10309.0,3.0,1.23,0.0,0
10311.0,3.3,0.0,0.0,0
10313.0,3.3,0.0,0.0,0
10315.0,3.3,0.0,0.0,0
10317.0,2.77,0.0,0.0,0
10319.0,2.55,0.0,0.0,0
10321.0,2.09,0.8,0.0,0
10323.0,1.96,3.3,0.0,0
10324.0,2.69,3.3,0.0,0
10327.0,2.45,3.3,0.0,0
10329.0,3.3,3.1,0.0,0
10331.0,3.3,0.0,0.0,0
10333.0,3.3,0.0,0.0,0
10335.0,3.3,0.0,0.0,0
10337.0,3.27,0.0,0.0,0
10339.0,3.26,0.0,0.0,0
10341.0,2.98,0.11,0.16,0
10343.0,3.09,3.3,1.27,0
10345.0,3.2,3.3,1.84,0
10347.0,2.84,3.3,2.09,0
10349.0,3.3,2.26,2.69,0
10351.0,3.3,0.0,2.72,0
10353.0,3.3,0.0,3.3,0
10355.0,3.3,0.0,3.24,0
10357.0,3.07,0.0,2.3,0
10359.0,2.98,0.0,1.65,0
10361.0,2.42,1.18,1.55,0
10363.0,3.3,3.3,2.51,0
10365.0,3.3,3.3,2.92,0
10368.0,2.9,3.3,3.24,0
10369.0,3.3,2.27,3.3,0
10371.0,3.3,0.0,3.3,0
10373.0,3.3,0.0,3.3,0
10375.0,3.3,0.0,3.04,0
10377.0,3.3,0.0,2.15,0
10379.0,3.3,1.0,2.05,0
10381.0,3.3,2.87,2.57,0
10383.0,3.3,3.3,3.3,0
10385.0,3.21,3.3,3.3,0
10387.0,3.22,3.3,3.3,0
10389.0,3.3,2.17,3.3,0
10391.0,3.3,0.0,3.3,0
10393.0,3.3,0.0,2.44,0
10395.0,3.3,0.0,1.22,0
10397.0,3.25,0.0,1.09,0
10399.0,2.73,0.02,1.59,0
10401.0,2.83,2.15,2.1,0
10403.0,2.76,3.3,2.37,0
10405.0,2.78,3.3,2.5,0
10407.0,2.53,3.3,2.44,0
10409.0,3.3,1.68,2.17,0
10412.0,3.3,0.0,1.3,0
10413.0,3.3,0.0,0.0,0
10415.0,3.3,0.0,0.0,0
10417.0,3.08,0.0,0.0,0
10419.0,3.06,0.14,0.0,0
10421.0,2.92,1.4,0.0,0
10423.0,2.41,3.3,0.0,0
10425.0,3.28,3.3,0.09,0
10427.0,2.88,3.3,0.48,0
10429.0,3.3,2.47,1.38,0
10431.0,3.3,0.0,2.45,0
10433.0,3.3,0.0,3.3,0
10435.0,3.3,0.0,3.3,0
10437.0,3.3,0.0,3.3,0
10439.0,3.3,1.55,3.3,0
10441.0,3.3,3.3,3.3,0
10443.0,2.71,3.3,3.3,0
10445.0,3.3,3.3,3.3,0
10447.0,3.22,3.3,3.3,0
10449.0,3.3,3.3,3.3,0
10451.0,3.3,0.0,3.3,0
10454.0,3.3,0.0,3.3,0
10456.0,3.3,0.0,3.3,0
10457.0,3.18,0.0,3.3,0
10459.0,3.23,0.81,3.3,0
10461.0,3.05,2.1,3.3,0
10463.0,2.97,3.3,3.3,0
10465.0,2.79,3.3,3.3,0
10467.0,2.3,3.3,3.3,0
10469.0,3.3,2.2,3.3,0
10471.0,3.3,0.0,3.3,0
10473.0,3.3,0.0,3.3,0
10475.0,3.3,0.0,3.3,0
10477.0,2.93,0.0,3.3,0
10479.0,2.62,1.03,3.3,0
10481.0,1.96,2.04,3.3,0
10483.0,2.99,3.3,3.3,0
10485.0,3.24,3.3,3.3,0
10487.0,3.3,3.3,3.3,0
10489.0,3.3,2.58,3.3,0
10491.0,3.3,0.0,3.3,0
10493.0,3.3,0.0,3.3,0
10496.0,3.3,0.0,3.3,0
10498.0,3.3,0.0,3.3,0
10499.0,3.3,0.35,3.3,0
10501.0,3.3,2.31,3.3,0
10503.0,3.3,3.3,3.3,0
10505.0,3.3,3.3,3.3,0
10507.0,3.3,3.3,3.3,0
10509.0,3.3,2.03,3.3,0
10511.0,3.3,0.0,3.3,0
10513.0,3.3,0.0,3.3,0
10515.0,3.3,0.0,3.3,0
10517.0,3.3,0.0,3.3,0
10519.0,2.68,0.35,3.3,0
10521.0,3.3,3.3,3.3,0
10523.0,3.3,3.3,3.3,0
10525.0,3.3,3.3,3.3,0
10527.0,3.3,3.3,3.3,0
10529.0,3.3,2.83,3.3,0
10531.0,3.3,0.0,3.3,0
10533.0,3.3,0.0,3.3,0
10535.0,3.3,0.0,3.3,0
10537.0,2.78,0.11,3.3,0
10540.0,2.27,2.52,3.3,0
10542.0,2.66,3.3,3.3,0
10544.0,2.34,3.3,3.3,0
10545.0,2.2,3.3,3.3,0
10547.0,2.46,3.3,3.3,0
10549.0,3.3,3.3,3.3,0
10551.0,3.3,0.0,3.3,0
10553.0,3.3,0.0,3.3,0
10555.0,3.3,0.0,3.3,0
10557.0,2.22,0.0,3.3,0
10559.0,2.39,3.3,3.3,0
10561.0,3.0,3.3,3.3,0
10563.0,2.51,3.3,3.3,0
10565.0,2.65,3.3,3.3,0
10567.0,2.78,3.3,3.3,0
10569.0,3.3,3.3,3.3,0
10571.0,3.3,0.0,3.3,0
10573.0,3.3,0.0,3.3,0
10575.0,3.3,0.0,1.64,0
10577.0,3.3,0.58,1.69,0
10579.0,2.99,3.3,1.82,0
10582.0,2.7,3.3,1.91,0
10584.0,3.3,3.3,2.8,0
10586.0,3.3,3.3,3.03,0
10587.0,3.3,3.3,2.66,0
10589.0,3.3,3.3,1.98,0
10591.0,3.3,0.0,1.63,0
10593.0,3.3,0.0,0.96,0
10595.0,3.3,0.0,0.0,0
10597.0,3.24,0.47,0.13,0
10599.0,2.71,3.3,0.64,0
10601.0,2.35,3.3,1.31,0
10603.0,2.62,3.3,0.07,0
10605.0,2.15,3.3,0.0,0
10607.0,2.14,3.3,0.09,0
10609.0,3.06,3.3,1.28,0
10611.0,3.3,0.0,2.18,0
10613.0,3.3,0.0,2.48,0
10615.0,3.3,0.0,1.64,0
10617.0,2.61,0.5,2.61,0
10619.0,2.68,3.29,3.3,0
10621.0,2.97,3.3,3.3,0
10624.0,3.3,3.3,3.3,0
10626.0,3.12,3.3,3.3,0
10628.0,3.28,3.3,3.3,0
10630.0,3.3,3.05,3.3,0
10631.0,3.3,0.0,3.3,0
10633.0,3.3,0.0,3.3,0
10635.0,3.3,0.0,3.03,0
10637.0,2.74,1.69,3.3,0
10639.0,1.74,3.3,3.3,0
10641.0,1.64,3.3,3.3,0
10643.0,2.05,3.3,3.3,0
10645.0,1.08,3.3,3.3,0
10647.0,1.43,3.3,3.3,0
10649.0,1.19,3.3,3.3,0
10651.0,0.85,0.0,3.3,0
10653.0,0.9,0.0,3.3,0
10655.0,0.0,0.16,3.01,0
10657.0,0.0,2.54,3.21,0
10659.0,0.0,3.3,3.26,0
10661.0,0.0,3.3,3.3,0
10663.0,0.0,3.3,3.3,0
10665.0,0.0,3.3,3.3,0
10668.0,0.38,3.3,3.3,0
10670.0,0.62,1.93,3.3,0
10672.0,2.04,0.0,3.3,0
10674.0,3.3,0.0,3.3,0
10675.0,3.3,0.0,0.83,0
10677.0,3.3,2.53,1.9,0
10679.0,3.3,3.3,1.99,0
10681.0,3.3,3.3,2.45,0
10683.0,3.3,3.3,2.73,0
10685.0,3.13,3.3,2.66,0
10687.0,2.92,3.3,3.05,0
10689.0,3.3,2.86,3.3,0
10691.0,3.3,0.0,3.3,0
10693.0,3.3,0.0,2.98,0
10695.0,3.3,0.0,0.94,0
10697.0,3.3,0.0,1.69,0
10699.0,3.3,0.47,2.25,0
10701.0,3.3,2.42,2.45,0
10703.0,3.3,3.3,3.17,0
10705.0,3.3,3.3,2.89,0
10707.0,3.3,3.3,3.3,0
10710.0,3.3,0.0,3.3,0
10712.0,3.3,0.0,3.3,0
10714.0,3.3,0.0,3.3,0
10716.0,3.3,0.0,1.56,0
10718.0,3.3,0.0,2.0,0
10719.0,3.3,0.07,2.92,0
10721.0,3.14,0.11,2.18,0
10723.0,3.3,3.3,3.3,0
10725.0,3.3,3.3,3.3,0
10727.0,1.69,3.3,3.3,0
10729.0,3.05,0.0,3.3,0
10731.0,3.3,0.0,3.3,0
10733.0,3.3,0.0,3.3,0
10735.0,3.3,0.0,2.04,0
10737.0,1.77,0.0,1.88,0
10739.0,1.55,0.45,3.03,0
10741.0,3.3,3.3,3.3,0
10743.0,3.3,3.3,3.3,0
10745.0,3.3,3.3,3.3,0
10747.0,3.3,3.3,3.3,0
10749.0,3.3,0.07,3.3,0
10752.0,3.3,0.0,3.3,0
10754.0,3.3,0.0,3.3,0
10756.0,3.3,0.0,3.3,0
10758.0,3.3,0.0,3.3,0
10760.0,3.3,2.52,3.3,0
10762.0,3.3,3.3,3.3,0
10763.0,3.3,3.3,3.3,0
10765.0,3.3,3.3,3.3,0
10767.0,3.3,3.3,3.3,0
10769.0,3.3,0.0,3.3,0
10771.0,3.3,0.0,3.3,0
10773.0,2.68,0.0,3.3,0
10775.0,0.35,0.0,3.3,0
10777.0,0.0,0.2,3.3,0
10779.0,0.0,1.92,3.3,0
10781.0,0.0,3.3,3.3,0
10783.0,0.0,3.3,3.3,0
10785.0,0.0,3.3,3.3,0
10787.0,0.0,3.3,3.3,0
10789.0,0.0,2.03,3.3,0
10791.0,0.0,0.0,3.3,0
10793.0,0.0,0.0,3.3,0
10796.0,0.0,0.0,2.87,0
10798.0,0.0,1.14,3.3,0
10800.0,0.0,3.3,3.3,0
10802.0,0.0,3.3,3.3,0
10804.0,0.0,3.3,3.3,0
10805.0,0.0,3.3,3.3,0
10807.0,0.0,3.3,3.3,0
10809.0,0.0,2.02,3.3,0
10811.0,0.0,0.0,3.3,0
10813.0,0.0,0.0,3.3,0
10815.0,0.0,0.0,2.15,0
10817.0,0.0,0.81,3.1,0
10819.0,0.0,2.43,3.0,0
10821.0,0.0,3.3,3.3,0
10823.0,0.0,3.3,3.3,0
10825.0,0.0,3.3,3.3,0
10827.0,0.0,3.3,3.3,0
10829.0,0.0,1.27,3.3,0
10831.0,0.0,0.0,3.3,0
10833.0,0.0,0.0,3.3,0
10835.0,0.0,0.18,2.08,0
10838.0,0.0,1.12,2.21,0
10840.0,0.0,3.3,2.86,0
10842.0,0.0,3.3,3.21,0
10844.0,0.06,3.3,3.3,0
10846.0,0.0,3.3,3.3,0
10848.0,0.09,3.3,3.3,0
10849.0,0.64,3.3,3.3,0
10851.0,1.16,0.0,3.3,0
10853.0,2.46,0.0,3.3,0
10855.0,0.97,0.34,0.71,0
10857.0,0.46,3.3,2.27,0
10859.0,0.0,3.3,2.9,0
10861.0,0.0,3.3,2.42,0
10863.0,0.52,3.3,3.3,0
10865.0,0.0,3.3,3.3,0
10867.0,0.25,3.3,3.3,0
10869.0,0.76,3.3,3.3,0
10871.0,0.0,0.0,2.77,0
10873.0,3.3,0.0,3.07,0
10875.0,2.99,0.81,1.39,0
10877.0,2.25,3.3,3.3,0
10880.0,2.45,3.3,3.3,0
10882.0,3.05,3.3,3.3,0
10884.0,3.3,3.3,3.3,0
10886.0,3.3,3.3,3.3,0
10888.0,3.26,3.3,3.23,0
10890.0,3.3,3.3,3.3,0
10892.0,3.3,0.0,3.3,0
10894.0,3.3,0.0,3.3,0
10895.0,3.3,1.29,2.86,0
10897.0,3.3,3.3,3.3,0
10899.0,3.3,3.3,3.3,0
10901.0,3.3,3.3,3.3,0
10903.0,3.3,3.3,3.3,0
10905.0,3.3,3.3,3.3,0
10907.0,3.3,3.3,3.3,0
10909.0,3.3,3.3,3.3,0
10911.0,3.3,0.0,3.3,0
10913.0,3.3,0.14,3.3,0
10915.0,3.3,2.29,3.3,0
10917.0,3.3,3.3,3.3,0
10919.0,3.3,3.3,3.3,0
10921.0,3.3,3.3,3.3,0
10924.0,3.3,3.3,3.3,0
10926.0,3.3,3.3,3.3,0
10928.0,3.3,3.3,3.3,0
10930.0,3.3,0.03,3.3,0
10932.0,3.3,0.0,3.3,0
10934.0,3.3,0.0,3.3,0
10936.0,3.3,0.04,3.3,0
10938.0,3.3,2.03,3.3,0
10940.0,3.3,3.09,3.3,0
10941.0,3.3,3.3,3.3,0
10943.0,3.3,3.3,3.3,0
10945.0,3.3,3.3,3.3,0
10947.0,3.3,3.3,3.3,0
10949.0,3.3,0.45,3.3,0
10951.0,3.3,0.0,3.3,0
10953.0,3.3,0.0,3.3,0
10955.0,3.3,0.0,3.3,0
10957.0,3.3,1.77,3.3,0
10959.0,3.3,2.57,3.3,0
10961.0,3.3,3.3,3.3,0
10963.0,3.3,3.3,3.3,0
10966.0,3.3,3.3,3.3,0
10968.0,3.3,3.3,3.3,0
10970.0,0.0,0.0,3.3,0
10972.0,0.0,0.0,3.3,0
10974.0,0.0,0.0,3.3,0
10976.0,0.0,0.0,2.4,0
10978.0,0.0,0.59,2.04,0
10980.0,0.0,2.16,3.3,0
10982.0,0.0,3.3,3.3,0
10983.0,0.0,3.3,3.3,0
10985.0,0.0,3.3,3.3,0
10987.0,0.0,3.3,3.3,0
10989.0,0.0,0.3,3.3,0
10991.0,0.0,0.0,3.3,0
10993.0,0.0,0.0,3.27,0
10995.0,0.0,0.0,0.03,0
10997.0,0.0,1.87,1.33,0
10999.0,0.0,3.3,3.3,0
11001.0,0.0,3.3,3.3,0
11003.0,0.0,3.3,3.3,0
11005.0,0.0,3.3,3.3,0
11008.0,0.0,3.3,3.3,0
11010.0,0.0,0.0,3.3,0
11012.0,0.0,0.0,3.3,0
11014.0,0.0,0.0,3.3,0
11016.0,0.0,0.0,0.0,0
11018.0,0.0,0.0,0.0,0
11020.0,0.0,1.15,3.3,0
11022.0,0.0,3.3,3.3,0
11024.0,0.0,3.3,3.3,0
11026.0,0.0,3.3,3.3,0
11027.0,0.0,2.37,3.3,0
11029.0,0.0,0.0,3.3,0
11031.0,0.0,0.0,2.46,0
11033.0,0.0,0.0,2.43,0
11035.0,0.0,0.0,0.87,0
11037.0,0.0,0.0,0.0,0
11039.0,0.0,0.82,2.71,0
11041.0,0.0,3.3,3.3,0
11043.0,0.0,3.3,3.3,0
11045.0,0.0,3.3,3.3,0
11047.0,0.91,3.3,3.3,0
11049.0,3.3,0.0,3.3,0
11052.0,3.3,0.0,0.91,0
11054.0,3.3,0.0,0.83,0
11056.0,3.3,0.25,0.0,0
11058.0,3.3,1.25,0.0,0
11060.0,3.3,2.09,1.43,0
11062.0,3.3,3.3,3.3,0
11064.0,3.3,3.3,3.3,0
11066.0,3.3,3.3,3.3,0
11068.0,3.3,3.3,2.21,0
11069.0,3.3,0.0,0.0,0
11071.0,3.3,0.0,0.0,0
11073.0,3.3,0.0,0.0,0
11075.0,3.3,0.0,0.0,0
11077.0,3.3,0.94,0.0,0
11079.0,3.3,2.58,0.0,0
11081.0,3.3,3.3,0.0,0
11083.0,3.3,3.3,0.0,0
11085.0,3.3,3.3,0.0,0
11087.0,3.3,3.3,0.0,0
11089.0,3.3,0.0,0.0,0
11091.0,3.3,0.0,0.0,0
11094.0,3.3,0.0,0.0,0
11096.0,3.3,0.0,0.0,0
11098.0,3.3,0.22,0.0,0
11100.0,3.3,1.54,0.0,0
11102.0,3.3,3.3,0.0,0
11104.0,3.3,3.3,0.0,0
11106.0,3.3,3.3,0.0,0
11108.0,3.3,3.03,0.0,0
11110.0,3.3,0.0,0.0,0
11111.0,3.3,0.0,0.0,0
11113.0,3.3,0.0,0.0,0
11115.0,2.38,0.0,0.0,0
11117.0,3.3,0.56,0.0,0
11119.0,3.3,0.45,0.0,0
11121.0,3.3,2.36,0.0,0
11123.0,3.3,3.3,0.0,0
11125.0,3.3,3.3,0.0,0
11127.0,3.3,0.7,0.0,0
11129.0,3.3,0.0,0.0,0
11131.0,3.3,0.0,0.0,0
11133.0,3.3,0.0,0.0,0
11136.0,1.56,0.0,3.3,0
11138.0,2.35,1.24,3.3,0
11140.0,3.3,3.2,3.3,0
11142.0,2.68,3.3,3.3,0
11144.0,3.3,3.3,3.3,0
11146.0,2.27,3.3,3.3,0
11148.0,3.3,3.17,3.3,0
11150.0,3.3,0.0,3.3,0
11152.0,3.3,0.0,3.3,0
11154.0,3.3,0.0,3.3,0
11155.0,2.26,0.0,3.3,0
11157.0,1.09,0.42,3.3,0
11159.0,1.59,2.86,3.3,0
11161.0,0.55,3.3,3.3,0
11163.0,3.06,3.3,3.3,0
11165.0,1.49,3.3,3.3,0
11167.0,0.83,0.87,3.3,0
11169.0,0.18,0.0,3.3,0
11171.0,0.12,0.0,2.55,0
11173.0,1.02,0.0,0.0,0
11175.0,0.0,0.0,0.0,0
11177.0,0.0,0.0,0.0,0
11180.0,0.01,2.94,0.0,0
11182.0,0.0,3.3,0.0,0
11184.0,1.41,3.3,0.0,0
11186.0,0.0,3.3,0.0,0
11188.0,1.89,3.3,0.0,0
11190.0,3.3,0.0,0.0,0
11192.0,3.3,0.0,0.0,0
11194.0,3.3,0.0,0.0,0
11196.0,2.19,0.08,0.0,0
11197.0,0.53,1.09,0.0,0
11199.0,0.35,1.8,0.0,0
11201.0,3.3,3.3,0.0,0
11203.0,3.3,3.3,0.0,0
11205.0,3.3,3.3,0.0,0
11207.0,3.3,3.3,0.0,0
11209.0,3.3,0.0,0.0,0
11211.0,3.3,0.0,0.0,0
11213.0,3.3,0.0,0.0,0
11215.0,0.96,0.0,0.0,0
11217.0,0.0,0.47,0.0,0
11219.0,0.0,3.1,0.0,0
11222.0,1.96,3.3,0.0,0
11224.0,2.98,3.3,0.0,0
11226.0,1.46,3.3,0.0,0
11228.0,0.12,2.23,0.0,0
11230.0,0.0,0.0,0.0,0
11232.0,3.2,0.0,0.0,0
11234.0,3.3,0.0,0.0,0
11236.0,2.19,0.0,0.0,0
11238.0,1.88,2.21,0.0,0
11240.0,1.72,3.3,0.0,0
11241.0,3.3,3.3,0.0,0
11243.0,3.3,3.3,0.0,0
11245.0,3.3,3.3,0.0,0
11247.0,3.3,3.3,0.0,0
11249.0,3.3,0.0,0.0,0
11251.0,3.3,0.0,3.3,0
11253.0,3.3,0.23,3.3,0
11255.0,3.3,1.7,3.3,0
11257.0,3.3,3.3,3.3,0
11259.0,3.3,3.3,0.0,0
11261.0,3.3,3.3,0.0,0
11264.0,3.3,3.3,0.0,0
11266.0,3.3,3.3,0.0,0
11268.0,3.3,0.0,0.0,0
