time,ch1,ch2,ch3,button
1.0,0.98,1.92,1.14,0
3.0,0.99,1.92,1.09,0
5.0,1.18,1.81,1.06,0
7.0,1.05,1.74,1.03,0
9.0,1.34,1.61,1.0,0
11.0,1.36,1.53,1.05,0
13.0,1.25,1.35,1.06,0
15.0,1.18,1.26,1.1,0
17.0,1.3,1.25,1.16,0
19.0,1.29,1.32,1.21,0
21.0,1.3,1.41,1.21,0
23.0,1.22,1.42,1.2,0
25.0,1.26,1.37,1.22,0
27.0,1.23,1.37,1.28,0
29.0,0.99,1.39,1.32,0
31.0,1.38,1.42,1.42,0
33.0,1.52,1.33,1.4,0
35.0,1.41,1.34,1.41,0
37.0,1.52,1.38,1.5,0
39.0,1.47,1.53,1.55,0
41.0,1.43,1.62,1.46,0
43.0,1.28,1.62,1.45,0
45.0,1.31,1.51,1.4,0
47.0,1.45,1.4,1.37,0
49.0,1.48,1.22,1.43,0
51.0,1.17,1.21,1.45,0
53.0,1.23,1.25,1.51,0
55.0,1.37,1.25,1.51,0
57.0,1.47,1.26,1.55,0
59.0,1.52,1.39,1.53,0
61.0,1.52,1.44,1.54,0
63.0,1.52,1.5,1.56,0
65.0,1.54,1.46,1.53,0
67.0,1.53,1.47,1.52,0
69.0,1.5,1.35,1.48,0
71.0,1.52,1.26,1.48,0
73.0,1.54,1.13,1.49,0
75.0,1.75,1.12,1.55,0
77.0,1.69,1.17,1.57,0
79.0,1.4,1.29,1.6,0
81.0,1.49,1.3,1.61,0
83.0,1.65,1.42,1.67,0
86.0,1.64,1.46,1.62,0
87.0,1.53,1.52,1.53,0
89.0,1.57,1.44,1.54,0
91.0,1.51,1.45,1.51,0
93.0,1.54,1.39,1.5,0
95.0,1.46,1.44,1.6,0
97.0,1.42,1.52,1.62,0
99.0,1.6,1.7,1.74,0
101.0,1.46,1.8,1.79,0
103.0,1.57,1.93,1.79,0
105.0,1.63,1.95,1.66,0
107.0,1.73,1.89,1.55,0
109.0,1.58,1.74,1.53,0
111.0,1.33,1.68,1.45,0
113.0,1.54,1.6,1.38,0
115.0,1.61,1.58,1.36,0
117.0,1.58,1.61,1.39,0
119.0,1.58,1.6,1.45,0
121.0,1.57,1.65,1.46,0
123.0,1.45,1.73,1.4,0
125.0,1.61,1.7,1.29,0
128.0,1.58,1.55,1.18,0
129.0,1.68,1.35,1.16,0
131.0,1.73,1.14,1.23,0
133.0,1.59,0.94,1.25,0
135.0,1.54,0.93,1.15,0
137.0,1.4,0.95,1.15,0
139.0,1.44,0.99,1.2,0
141.0,1.56,0.99,1.26,0
143.0,1.61,1.08,1.43,0
145.0,1.56,1.08,1.45,0
147.0,1.65,1.04,1.35,0
149.0,1.78,0.93,1.22,0
151.0,1.66,0.91,1.16,0
153.0,1.62,0.79,1.17,0
155.0,1.64,0.85,1.29,0
157.0,1.64,0.89,1.23,0
159.0,1.61,0.96,1.1,0
161.0,1.73,0.96,0.96,0
163.0,1.79,0.97,0.74,0
165.0,1.73,0.98,0.45,0
167.0,1.48,0.95,0.39,0
169.0,1.53,0.83,0.5,0
172.0,1.64,0.89,0.43,0
174.0,1.64,0.97,0.35,0
176.0,1.47,1.03,0.45,0
177.0,1.51,1.09,0.88,0
179.0,1.59,1.24,1.54,0
181.0,1.31,1.23,2.79,0
183.0,1.4,1.3,3.25,0
185.0,1.56,1.36,3.19,0
187.0,1.6,1.26,2.78,0
189.0,1.56,1.13,1.89,0
191.0,1.59,1.17,1.32,0
193.0,1.6,1.12,1.08,0
195.0,1.54,1.1,0.85,0
197.0,1.51,1.11,0.62,0
199.0,1.24,1.16,0.28,0
201.0,1.54,1.21,0.17,0
203.0,1.64,1.27,0.01,0
205.0,1.52,1.25,0.01,0
207.0,1.52,1.2,1.23,0
209.0,1.59,1.15,2.42,0
211.0,1.52,1.15,2.69,0
214.0,1.29,1.12,2.53,0
216.0,1.39,1.24,2.51,0
218.0,1.53,1.3,2.55,0
220.0,1.51,1.35,2.52,0
221.0,1.49,1.4,2.0,0
223.0,1.42,1.4,1.62,0
225.0,1.48,1.31,1.33,0
227.0,1.52,1.24,1.24,0
229.0,1.34,1.13,1.21,0
231.0,1.52,1.12,0.01,0
233.0,1.64,1.14,0.01,0
235.0,1.56,1.25,0.01,0
237.0,1.59,1.37,0.01,0
239.0,1.54,1.5,0.02,0
241.0,1.53,1.59,0.02,0
243.0,1.5,1.66,0.02,0
245.0,1.32,1.63,0.02,0
247.0,1.37,1.62,0.02,0
249.0,1.55,1.48,0.02,0
251.0,1.66,1.4,0.01,0
253.0,1.52,1.35,0.01,0
256.0,1.2,1.39,0.18,0
258.0,1.59,1.48,0.58,0
260.0,1.55,1.61,0.87,0
262.0,1.57,1.69,1.67,0
263.0,1.57,1.74,2.55,0
265.0,1.56,1.75,2.99,0
267.0,1.57,1.72,3.26,0
269.0,1.59,1.6,3.26,0
271.0,1.54,1.55,3.18,0
273.0,1.5,1.54,3.0,0
275.0,1.48,1.58,2.95,0
277.0,1.62,1.62,3.03,0
279.0,1.46,1.61,2.99,0
281.0,1.37,1.68,2.82,0
283.0,1.44,1.74,2.47,0
285.0,1.76,1.7,2.04,0
287.0,1.78,1.65,1.52,0
289.0,1.52,1.59,1.39,0
291.0,1.4,1.54,1.46,0
293.0,1.61,1.54,0.68,0
295.0,1.68,1.58,0.02,0
297.0,1.55,1.63,0.02,0
300.0,1.37,1.69,0.03,0
302.0,1.28,1.75,0.03,0
304.0,1.51,1.83,0.03,0
306.0,1.74,1.81,0.03,0
307.0,1.68,1.77,0.02,0
309.0,1.84,1.61,0.02,0
311.0,1.83,1.49,0.02,0
313.0,1.6,1.41,0.01,0
315.0,1.62,1.45,0.02,0
317.0,1.52,1.48,0.02,0
319.0,1.55,1.55,0.02,0
321.0,1.58,1.6,0.02,0
323.0,1.31,1.66,0.02,0
325.0,1.35,1.63,0.02,0
327.0,1.47,1.59,0.02,0
329.0,1.53,1.49,0.02,0
331.0,1.55,1.46,0.02,0
333.0,1.43,1.42,0.02,0
335.0,1.44,1.39,0.02,0
337.0,1.75,1.4,0.02,0
339.0,1.76,1.44,0.02,0
342.0,1.4,1.54,0.02,0
344.0,1.63,1.68,0.02,0
346.0,1.65,1.7,0.02,0
348.0,1.52,1.65,0.02,0
350.0,1.52,1.63,0.02,0
352.0,1.44,1.69,0.02,0
354.0,1.55,1.67,0.02,0
355.0,1.53,1.68,0.02,0
357.0,1.45,1.68,0.02,0
359.0,1.33,1.68,0.02,0
361.0,1.39,1.68,0.02,0
363.0,1.36,1.59,0.02,0
365.0,1.32,1.42,0.01,0
367.0,1.37,1.27,0.01,0
369.0,1.5,1.16,0.01,0
371.0,1.6,1.15,0.01,0
373.0,1.44,1.15,0.01,0
375.0,1.04,1.12,0.01,0
377.0,1.25,1.17,0.01,0
379.0,1.37,1.29,0.01,0
381.0,1.34,1.35,0.01,0
384.0,1.37,1.38,0.02,0
386.0,1.4,1.39,0.01,0
388.0,1.28,1.39,0.01,0
390.0,1.46,1.35,0.01,0
392.0,1.47,1.35,0.01,0
394.0,1.08,1.25,0.01,0
396.0,1.14,1.32,0.01,0
398.0,1.56,1.34,0.01,0
400.0,1.61,1.42,0.02,0
402.0,1.38,1.5,0.03,0
404.0,1.4,1.55,0.02,0
406.0,1.54,1.52,0.03,0
407.0,1.57,1.48,0.02,0
409.0,1.57,1.37,0.01,0
411.0,1.53,1.38,0.02,0
413.0,1.47,1.37,0.02,0
415.0,1.47,1.33,0.01,0
417.0,1.58,1.3,0.02,0
419.0,1.61,1.39,0.02,0
421.0,1.52,1.48,0.02,0
423.0,1.27,1.47,0.02,0
425.0,1.08,1.49,0.02,0
428.0,1.32,1.36,0.02,0
430.0,1.69,1.17,0.01,0
432.0,1.68,0.91,0.0,0
434.0,1.59,0.73,0.0,0
436.0,1.54,0.68,0.12,0
438.0,1.54,0.75,0.4,0
440.0,1.5,0.88,0.64,0
442.0,1.41,0.97,0.89,0
444.0,1.49,0.96,1.13,0
446.0,1.43,0.87,1.36,0
448.0,1.41,0.79,1.58,0
449.0,1.49,0.69,1.77,0
451.0,1.49,0.72,1.95,0
453.0,1.24,0.71,2.09,0
455.0,0.94,0.81,2.23,0
457.0,0.91,0.89,2.37,0
459.0,1.19,0.96,2.53,0
461.0,1.26,0.98,2.66,0
463.0,1.12,0.98,2.78,0
465.0,1.03,0.87,2.84,0
467.0,0.96,0.81,2.94,0
470.0,0.99,0.8,3.03,0
472.0,1.04,0.86,3.16,0
474.0,1.16,0.94,3.24,0
476.0,1.06,1.05,3.25,0
478.0,0.88,1.06,3.25,0
480.0,0.92,1.13,3.25,0
482.0,1.0,1.19,3.25,0
484.0,1.04,1.15,3.25,0
486.0,1.08,1.04,3.25,0
488.0,1.09,1.07,3.25,0
490.0,1.05,1.1,3.25,0
492.0,1.1,1.12,3.08,0
494.0,1.21,1.16,2.99,0
495.0,1.22,1.24,2.75,0
497.0,1.1,1.35,2.6,0
499.0,1.22,1.48,2.42,0
501.0,1.3,1.6,2.44,0
503.0,1.11,1.6,2.3,0
505.0,1.17,1.6,1.84,0
507.0,1.32,1.59,1.43,0
509.0,1.29,1.56,1.11,0
512.0,1.13,1.62,1.11,0
514.0,1.14,1.65,1.1,0
516.0,1.06,1.76,0.7,0
518.0,1.25,1.84,0.46,0
520.0,1.3,1.82,0.48,0
522.0,1.29,1.79,0.39,0
524.0,1.25,1.65,0.1,0
526.0,1.27,1.52,0.01,0
528.0,1.25,1.42,0.01,0
530.0,1.29,1.42,0.01,0
532.0,1.24,1.4,0.01,0
534.0,1.43,1.41,0.01,0
536.0,1.26,1.51,0.02,0
538.0,1.07,1.56,0.02,0
539.0,1.16,1.65,0.02,0
541.0,1.35,1.7,0.02,0
543.0,1.34,1.75,0.02,0
545.0,1.42,1.65,0.02,0
547.0,1.49,1.54,0.01,0
549.0,1.46,1.43,0.02,0
551.0,1.55,1.33,0.01,0
553.0,1.37,1.29,0.01,0
556.0,1.47,1.38,0.01,0
558.0,1.36,1.47,0.02,0
560.0,1.42,1.59,0.02,0
562.0,1.37,1.81,0.02,0
564.0,1.24,1.98,0.03,0
566.0,1.04,2.08,0.03,0
568.0,0.98,2.11,0.03,0
570.0,1.07,2.28,0.04,0
572.0,1.01,2.44,0.04,0
574.0,0.97,2.62,0.04,0
576.0,0.97,2.78,0.05,0
578.0,0.99,2.96,0.05,0
580.0,1.0,3.17,0.05,0
582.0,1.1,3.3,0.05,0
583.0,1.1,3.3,0.05,0
585.0,0.93,3.3,0.05,0
587.0,0.84,3.3,0.05,0
589.0,1.09,3.3,0.05,0
591.0,1.28,3.3,0.05,0
593.0,1.25,3.3,0.17,0
595.0,1.11,3.3,0.26,0
598.0,1.22,3.3,0.55,0
600.0,1.35,3.3,0.77,0
602.0,1.31,3.3,0.98,0
604.0,1.28,3.3,3.3,0
606.0,1.28,3.3,3.3,0
608.0,1.36,3.29,3.3,0
610.0,1.36,3.27,3.3,0
612.0,1.39,3.21,3.3,0
614.0,1.35,3.18,3.3,0
616.0,1.37,3.16,3.3,0
618.0,1.42,3.15,3.3,0
620.0,1.57,3.25,3.3,0
622.0,1.7,3.27,3.3,0
624.0,1.54,3.12,3.3,0
626.0,1.52,2.89,3.29,0
628.0,1.66,2.73,3.29,0
630.0,1.54,2.5,3.28,0
631.0,1.56,2.22,3.27,0
633.0,1.68,2.22,3.27,0
635.0,1.47,2.36,3.27,0
637.0,1.3,2.44,3.28,0
640.0,1.39,2.74,3.29,0
642.0,1.55,2.97,3.29,0
644.0,1.42,2.95,3.29,0
646.0,1.51,2.98,3.29,0
648.0,1.64,3.14,3.3,0
650.0,1.51,3.2,3.3,0
652.0,1.46,3.3,3.3,0
654.0,1.59,3.3,3.3,0
656.0,1.62,3.3,3.3,0
658.0,1.64,3.3,3.3,0
660.0,1.67,3.3,3.3,0
662.0,1.65,3.3,3.3,0
664.0,1.69,3.3,3.3,0
666.0,1.56,3.3,3.3,0
668.0,1.38,3.3,3.3,0
670.0,1.57,3.26,3.3,0
672.0,1.61,3.21,3.3,0
673.0,1.49,3.19,3.3,0
675.0,1.44,3.04,3.29,0
677.0,1.46,2.9,3.29,0
679.0,1.36,2.76,3.29,0
681.0,1.35,2.65,3.28,0
684.0,1.45,2.73,3.29,0
686.0,1.54,2.66,3.28,0
688.0,1.65,2.47,3.28,0
690.0,1.72,2.38,3.28,0
692.0,1.71,2.38,3.28,0
694.0,1.72,2.32,3.28,0
696.0,1.71,2.46,3.28,0
698.0,1.69,2.62,3.29,0
700.0,1.74,2.72,3.29,0
702.0,1.81,3.01,3.29,0
704.0,1.48,3.09,3.3,0
706.0,1.31,3.02,3.29,0
708.0,1.4,2.93,3.29,0
710.0,1.55,3.03,3.29,0
712.0,1.75,3.25,3.3,0
714.0,1.66,3.3,3.3,0
716.0,1.66,3.3,3.3,0
717.0,1.6,3.3,3.3,0
719.0,1.64,3.3,3.3,0
721.0,1.58,3.3,3.3,0
723.0,1.38,3.3,3.3,0
726.0,1.45,3.3,3.3,0
728.0,1.45,3.3,3.3,0
730.0,1.42,3.3,3.3,0
732.0,1.65,3.3,3.3,0
734.0,1.41,3.3,3.3,0
736.0,1.14,3.3,3.09,0
738.0,1.3,3.3,2.72,0
740.0,1.56,3.3,2.47,0
742.0,1.65,3.3,2.24,0
744.0,1.55,3.3,2.32,0
746.0,1.44,3.3,2.3,0
748.0,1.4,3.3,2.1,0
750.0,1.41,3.3,1.94,0
752.0,1.58,3.3,1.83,0
754.0,1.61,3.3,1.72,0
756.0,1.5,3.3,1.65,0
758.0,1.39,3.3,1.65,0
760.0,1.42,3.3,1.79,0
762.0,1.55,3.3,1.71,0
763.0,1.47,3.3,1.83,0
765.0,1.28,3.3,2.03,0
768.0,1.33,3.3,2.14,0
770.0,1.45,3.3,2.14,0
772.0,1.39,3.3,2.1,0
774.0,1.54,3.3,2.16,0
776.0,1.56,3.3,3.3,0
778.0,1.44,3.3,3.29,0
780.0,1.32,3.3,3.18,0
782.0,1.28,3.3,3.12,0
784.0,1.32,3.3,3.0,0
786.0,1.37,3.3,2.83,0
788.0,1.36,3.3,2.81,0
790.0,1.35,3.3,2.84,0
792.0,1.45,3.3,2.83,0
794.0,1.4,3.3,2.7,0
796.0,1.36,3.3,2.61,0
798.0,1.53,3.3,2.57,0
800.0,1.25,3.3,2.51,0
802.0,1.27,3.3,2.47,0
804.0,1.36,3.3,1.97,0
806.0,1.44,3.3,1.57,0
807.0,1.52,3.3,1.34,0
809.0,1.48,3.3,1.45,0
812.0,1.56,3.3,1.54,0
814.0,1.56,3.3,1.52,0
816.0,1.47,3.3,1.59,0
818.0,1.39,3.3,1.61,0
820.0,1.63,3.3,1.36,0
822.0,1.53,3.3,1.45,0
824.0,1.31,3.3,1.37,0
826.0,1.47,3.3,1.32,0
828.0,1.57,3.3,1.3,0
830.0,1.54,3.3,1.26,0
832.0,1.54,3.3,1.25,0
834.0,1.62,3.3,1.15,0
836.0,1.58,3.3,1.07,0
838.0,1.46,3.3,1.24,0
840.0,1.45,3.3,1.33,0
842.0,1.49,3.3,1.63,0
844.0,1.59,3.3,1.73,0
846.0,1.67,3.3,1.75,0
848.0,1.58,3.3,1.67,0
850.0,1.49,3.3,1.49,0
852.0,1.62,3.3,1.47,0
854.0,1.56,3.3,1.41,0
856.0,1.45,3.3,1.36,0
858.0,1.49,3.3,1.3,0
860.0,1.48,3.3,1.06,0
862.0,1.48,3.3,0.82,0
864.0,1.46,3.3,0.68,0
866.0,1.43,3.3,0.68,0
868.0,1.51,3.3,0.74,0
870.0,1.68,3.3,0.72,0
872.0,1.69,3.3,0.7,0
874.0,1.65,3.3,0.69,0
876.0,1.35,3.3,0.8,0
878.0,1.48,3.3,1.13,0
880.0,1.6,3.3,1.5,0
882.0,1.57,3.3,1.84,0
884.0,1.62,3.3,2.03,0
886.0,1.64,3.3,2.35,0
888.0,1.69,3.3,2.64,0
890.0,1.74,3.3,3.09,0
892.0,1.46,3.3,3.07,0
894.0,1.39,3.3,3.26,0
897.0,1.62,3.3,3.3,0
899.0,1.6,3.3,3.3,0
901.0,1.5,3.3,3.3,0
902.0,1.55,3.3,3.3,0
904.0,1.63,3.3,3.3,0
906.0,1.63,3.3,3.29,0
908.0,1.68,3.3,3.09,0
910.0,1.49,3.3,2.79,0
912.0,1.43,3.3,2.73,0
914.0,1.45,3.3,2.63,0
916.0,1.57,3.3,2.47,0
918.0,1.67,3.3,2.62,0
920.0,1.65,3.3,2.71,0
922.0,1.76,3.3,2.46,0
924.0,1.47,3.3,2.16,0
926.0,1.45,3.3,2.02,0
928.0,1.47,3.21,1.85,0
930.0,1.64,3.01,1.68,0
932.0,1.54,3.02,1.59,0
934.0,1.1,2.83,1.64,0
936.0,1.35,2.29,1.61,0
939.0,1.49,1.61,1.43,0
941.0,1.48,1.45,1.5,0
943.0,1.47,1.53,1.31,0
945.0,1.48,0.99,1.15,0
947.0,1.49,0.99,1.17,0
949.0,1.39,0.88,1.3,0
950.0,1.37,0.33,1.37,0
952.0,1.5,0.38,1.25,0
954.0,1.45,0.67,1.19,0
956.0,1.51,1.14,1.31,0
958.0,1.54,1.2,1.53,0
960.0,1.56,1.13,1.43,0
962.0,1.35,0.47,1.43,0
964.0,1.39,0.0,1.66,0
966.0,1.43,0.0,1.61,0
968.0,1.44,0.0,1.63,0
970.0,1.43,0.0,1.46,0
972.0,1.39,0.0,1.18,0
974.0,1.27,0.0,1.24,0
976.0,1.29,0.0,1.34,0
978.0,1.23,0.0,1.44,0
980.0,1.45,0.0,1.44,0
983.0,1.5,0.0,1.44,0
985.0,1.45,0.01,1.22,0
987.0,1.38,0.0,1.14,0
989.0,1.34,0.0,1.18,0
991.0,1.42,0.06,1.2,0
993.0,1.43,0.0,1.09,0
994.0,1.35,0.0,0.98,0
996.0,1.32,0.0,0.92,0
998.0,1.33,0.0,0.88,0
1000.0,1.27,0.0,0.69,0
1002.0,1.09,0.0,0.64,0
1004.0,1.31,0.0,0.58,0
1006.0,1.3,0.0,0.43,0
1008.0,0.94,0.0,0.32,0
1010.0,1.1,0.0,0.35,0
1012.0,1.32,0.0,0.21,0
1014.0,1.4,0.0,0.26,0
1016.0,1.34,0.0,0.48,0
1018.0,1.31,0.0,0.54,0
1020.0,1.32,0.0,0.51,0
1022.0,1.32,0.0,0.44,0
1025.0,1.24,0.0,0.41,0
1027.0,1.21,0.0,0.44,0
1029.0,1.42,0.0,0.51,0
1031.0,1.38,0.0,0.68,0
1033.0,1.42,0.0,0.71,0
1035.0,1.18,0.0,0.8,0
1036.0,1.28,0.0,0.92,0
1038.0,1.35,0.0,0.9,0
1040.0,1.25,0.0,0.87,0
1042.0,1.3,0.0,1.04,0
1044.0,1.19,0.28,1.16,0
1046.0,1.33,0.92,1.1,0
1048.0,1.28,0.72,1.28,0
1050.0,1.27,0.8,1.41,0
1052.0,1.17,0.81,1.5,0
1054.0,1.1,0.81,1.47,0
1056.0,1.16,0.9,1.3,0
1058.0,1.42,0.97,1.54,0
1060.0,1.31,0.66,1.67,0
1062.0,1.21,0.0,1.95,0
1064.0,1.31,0.0,2.05,0
1067.0,1.25,0.0,2.15,0
1069.0,1.26,0.0,2.26,0
1071.0,1.29,0.0,2.38,0
1073.0,1.29,0.0,2.44,0
1075.0,1.22,0.0,2.65,0
1077.0,1.28,0.0,2.87,0
1078.0,1.45,0.0,2.85,0
1080.0,1.51,0.0,2.75,0
1082.0,1.35,0.0,2.48,0
1084.0,1.16,0.0,2.46,0
1086.0,1.15,0.0,2.34,0
1088.0,1.21,0.0,2.17,0
1090.0,1.33,0.0,2.05,0
1092.0,1.47,0.0,1.8,0
1094.0,1.53,0.0,1.82,0
1096.0,1.46,0.0,2.1,0
1098.0,1.45,0.0,2.29,0
1100.0,1.45,0.0,2.11,0
1102.0,1.43,0.0,2.03,0
1104.0,1.45,0.0,1.86,0
1106.0,1.48,0.0,1.84,0
1108.0,1.5,0.0,1.87,0
1111.0,1.52,0.0,1.98,0
1113.0,1.57,0.0,1.95,0
1115.0,1.75,0.0,1.95,0
1117.0,1.52,0.0,2.02,0
1119.0,1.06,0.0,2.0,0
1121.0,1.35,0.0,2.06,0
1122.0,1.47,0.0,2.19,0
1124.0,1.45,0.0,2.23,0
1126.0,1.46,0.0,2.33,0
1128.0,1.72,0.0,2.45,0
1130.0,1.71,0.0,2.7,0
1132.0,1.7,0.0,2.69,0
1134.0,1.73,0.0,2.82,0
1136.0,1.69,0.0,2.74,0
1138.0,1.6,0.0,2.65,0
1140.0,1.63,0.0,2.61,0
1142.0,1.64,0.0,2.65,0
1144.0,1.64,0.0,2.58,0
1146.0,1.65,0.0,2.51,0
1148.0,1.72,0.0,2.48,0
1150.0,1.5,0.0,2.55,0
1153.0,1.48,0.0,2.39,0
1155.0,1.6,0.0,2.34,0
1157.0,1.71,0.0,2.39,0
1159.0,1.68,0.0,2.44,0
1161.0,1.72,0.0,2.49,0
1163.0,1.81,0.0,2.51,0
1164.0,1.68,0.0,2.44,0
1166.0,1.6,0.0,2.22,0
1168.0,1.67,0.0,2.12,0
1170.0,1.68,0.0,1.95,0
1172.0,1.55,0.0,1.9,0
1174.0,1.54,0.0,1.87,0
1176.0,1.65,0.0,1.84,0
1178.0,1.54,0.0,1.72,0
1180.0,1.5,0.0,1.8,0
1182.0,1.73,0.0,1.81,0
1184.0,1.69,0.0,1.73,0
1186.0,1.65,0.0,1.78,0
1188.0,1.62,0.0,1.61,0
1190.0,1.6,0.0,1.58,0
1192.0,1.57,0.0,1.57,0
1195.0,1.61,0.0,1.64,0
1197.0,1.66,0.0,1.65,0
1199.0,1.42,0.0,1.65,0
1201.0,1.29,0.0,1.71,0
1203.0,1.51,0.0,1.61,0
1205.0,1.49,0.0,1.4,0
1206.0,1.4,0.0,1.45,0
1208.0,1.74,0.0,1.39,0
1210.0,1.78,0.0,1.24,0
1212.0,1.62,0.0,1.11,0
1214.0,1.67,0.0,1.11,0
1216.0,1.69,0.0,1.21,0
1218.0,1.65,0.0,1.29,0
1220.0,1.67,0.0,1.4,0
1222.0,1.7,0.0,1.39,0
1224.0,1.75,0.0,1.31,0
1226.0,1.73,0.0,1.32,0
1228.0,1.8,0.0,1.51,0
1230.0,1.87,0.0,1.56,0
1232.0,1.91,0.0,1.42,0
1234.0,1.92,0.0,1.32,0
1236.0,1.84,0.0,1.3,0
1239.0,1.82,0.0,1.45,0
1241.0,1.84,0.0,1.5,0
1243.0,1.76,0.0,1.44,0
1245.0,1.64,0.0,1.48,0
1247.0,1.8,0.0,1.45,0
1249.0,1.8,0.0,1.33,0
1250.0,1.75,0.0,1.34,0
1252.0,1.77,0.0,1.34,0
1254.0,1.77,0.0,1.4,0
1256.0,1.53,0.0,1.49,0
1258.0,1.57,0.01,1.55,0
1260.0,1.37,0.06,1.51,0
1262.0,1.37,0.22,1.5,0
1264.0,1.59,0.25,1.5,0
1266.0,1.68,0.23,1.53,0
1268.0,1.68,0.07,1.48,0
1270.0,1.63,0.06,1.5,0
1272.0,1.61,0.0,1.58,0
1274.0,1.55,0.04,1.56,0
1276.0,1.5,0.13,1.59,0
1278.0,1.68,0.26,1.77,0
1281.0,1.83,0.38,1.83,0
1283.0,1.77,0.43,1.77,0
1285.0,1.37,0.3,1.7,0
1287.0,1.29,0.21,1.61,0
1289.0,1.51,0.15,1.66,0
1291.0,1.57,0.18,1.71,0
1292.0,1.52,0.05,1.77,0
1294.0,1.49,0.0,1.72,0
1296.0,1.37,0.04,1.64,0
1298.0,1.46,0.25,1.53,0
1300.0,1.53,0.36,1.5,0
1302.0,1.52,0.37,1.51,0
1304.0,1.55,0.35,1.51,0
1306.0,1.44,0.21,1.62,0
1308.0,1.44,0.0,1.65,0
1310.0,1.44,0.0,1.61,0
1312.0,1.43,0.0,1.36,0
1314.0,1.41,0.0,1.25,0
1316.0,1.42,0.0,1.33,0
1318.0,1.45,0.09,1.52,0
1320.0,1.45,0.24,1.51,0
1323.0,1.33,0.39,1.59,0
1325.0,1.3,0.55,1.64,0
1327.0,1.4,0.62,1.59,0
1329.0,1.43,0.58,1.51,0
1331.0,1.4,0.55,1.45,0
1333.0,1.31,0.59,1.54,0
1334.0,1.41,0.61,1.72,0
1336.0,1.35,0.75,1.77,0
1338.0,1.29,1.0,1.82,0
1340.0,1.4,0.99,1.78,0
1342.0,1.34,1.05,1.75,0
1344.0,1.38,0.99,1.64,0
1346.0,1.55,0.95,1.42,0
1348.0,1.36,0.72,1.25,0
1350.0,1.36,0.54,1.24,0
1352.0,1.42,0.47,1.27,0
1354.0,1.43,0.51,1.32,0
1356.0,1.47,0.47,1.26,0
1358.0,1.26,0.61,1.23,0
1360.0,1.17,0.71,1.29,0
1362.0,1.23,0.83,1.47,0
1364.0,1.31,0.83,1.56,0
1367.0,1.29,0.82,1.45,0
1369.0,1.32,0.71,1.4,0
1371.0,1.41,0.57,1.36,0
1373.0,1.44,0.58,1.27,0
1375.0,1.28,0.64,1.39,0
1377.0,1.25,0.79,1.31,0
1378.0,1.31,0.97,1.26,0
1380.0,1.33,1.06,1.38,0
1382.0,1.21,1.25,1.54,0
1384.0,1.37,1.29,1.41,0
1386.0,1.5,1.11,1.13,0
1388.0,1.5,0.98,1.06,0
1390.0,1.47,1.04,0.99,0
1392.0,1.43,0.99,1.01,0
1394.0,1.43,1.04,0.98,0
1396.0,1.32,1.22,1.0,0
1398.0,1.25,1.47,1.09,0
1400.0,1.34,1.52,1.11,0
1402.0,1.39,1.65,1.1,0
1404.0,1.39,1.64,1.09,0
1406.0,1.34,1.54,1.28,0
1409.0,1.28,1.45,1.41,0
1411.0,1.34,1.44,1.42,0
1413.0,1.34,1.2,1.27,0
1415.0,1.25,1.09,0.01,0
1417.0,1.33,1.0,0.01,0
1419.0,1.37,0.91,0.01,0
1420.0,1.38,0.74,0.01,0
1422.0,1.44,0.76,0.01,0
1424.0,1.4,0.83,0.01,0
1426.0,1.26,0.75,0.0,0
1428.0,1.34,0.64,0.0,0
1430.0,1.5,0.59,0.0,0
1432.0,1.43,0.35,0.0,0
1434.0,1.39,0.01,0.0,0
1436.0,1.45,0.0,0.0,0
1438.0,1.43,0.0,0.0,0
1440.0,1.31,0.0,0.0,0
1442.0,1.37,0.04,0.0,0
1444.0,1.27,0.08,0.0,0
1446.0,1.45,0.0,0.0,0
1448.0,1.47,0.0,0.0,0
1451.0,1.28,0.0,0.0,0
1453.0,1.35,0.05,0.0,0
1455.0,1.43,0.18,0.0,0
1457.0,1.27,0.4,0.0,0
1459.0,1.28,0.62,0.0,0
1461.0,1.39,0.86,0.01,0
1462.0,1.35,1.07,0.01,0
1464.0,1.31,1.04,0.04,0
1466.0,1.46,1.05,0.13,0
1468.0,1.42,1.12,0.25,0
1470.0,1.37,1.24,0.31,0
1472.0,1.51,1.56,0.35,0
1474.0,1.38,2.03,0.53,0
1476.0,1.45,2.38,0.64,0
1478.0,1.5,2.65,0.8,0
1480.0,1.51,2.86,0.88,0
1482.0,1.5,2.99,1.06,0
1484.0,1.47,2.95,1.18,0
1486.0,1.46,2.91,1.32,0
1488.0,1.45,2.81,1.41,0
1490.0,1.47,2.91,1.37,0
1492.0,1.38,2.69,1.46,0
1495.0,1.37,2.57,1.66,0
1497.0,1.58,2.47,2.03,0
1499.0,1.49,1.88,2.13,0
1501.0,1.4,2.06,1.96,0
1503.0,1.42,2.39,1.92,0
1505.0,1.57,2.38,2.17,0
1506.0,1.69,2.31,2.34,0
1508.0,1.48,1.75,2.23,0
1510.0,1.43,1.99,2.25,0
1512.0,1.47,2.23,2.35,0
1514.0,1.51,2.37,2.26,0
1516.0,1.49,2.51,2.1,0
1518.0,1.42,2.93,2.13,0
1520.0,1.54,3.25,2.05,0
1522.0,1.52,3.3,2.12,0
1524.0,1.49,3.3,2.18,0
1526.0,1.49,3.3,2.15,0
1528.0,1.51,3.3,2.12,0
1530.0,1.47,3.3,2.09,0
1532.0,1.57,3.3,1.97,0
1534.0,1.59,3.3,1.95,0
1537.0,1.44,3.3,2.14,0
1539.0,1.39,3.3,3.28,0
1541.0,1.57,3.3,3.3,0
1543.0,1.61,3.3,3.3,0
1545.0,1.3,3.3,3.3,0
1547.0,1.29,3.3,3.3,0
1548.0,1.32,3.3,3.3,0
1550.0,1.53,3.3,3.3,0
1552.0,1.5,3.3,3.3,0
1554.0,1.42,3.3,3.3,0
1556.0,1.36,3.3,3.3,0
1558.0,1.4,3.3,3.3,0
1560.0,1.42,3.3,3.3,0
1562.0,1.35,3.3,3.3,0
1564.0,1.37,3.16,3.3,0
1566.0,1.42,3.04,3.29,0
1568.0,1.35,2.76,3.28,0
1570.0,1.32,2.64,3.28,0
1572.0,1.45,2.56,3.27,0
1574.0,1.48,2.64,3.28,0
1576.0,1.42,2.7,3.28,0
1579.0,1.32,2.84,3.28,0
1581.0,1.26,2.86,3.29,0
1583.0,1.34,2.76,3.26,0
1585.0,1.45,2.66,3.1,0
1587.0,1.41,2.55,2.91,0
1589.0,1.44,2.35,2.72,0
1590.0,1.45,2.21,2.6,0
1592.0,1.37,2.0,2.52,0
1594.0,1.39,1.95,2.45,0
1596.0,1.46,1.99,2.43,0
1598.0,1.47,2.14,2.41,0
1600.0,1.45,2.27,2.31,0
1602.0,1.48,2.38,2.18,0
1604.0,1.48,2.29,2.03,0
1606.0,1.47,2.08,1.9,0
1608.0,1.63,1.89,1.69,0
1610.0,1.69,1.83,1.49,0
1612.0,1.47,1.83,1.51,0
1614.0,1.5,1.86,1.51,0
1616.0,1.62,1.94,1.52,0
1618.0,1.56,2.07,1.46,0
1620.0,1.64,2.11,1.31,0
1623.0,1.68,2.06,1.24,0
1625.0,1.61,1.97,1.13,0
1627.0,1.62,1.89,1.04,0
1629.0,1.77,1.73,0.95,0
1631.0,1.77,1.63,0.9,0
1633.0,1.74,1.53,0.91,0
1634.0,1.69,1.54,0.92,0
1636.0,1.71,1.67,0.98,0
1638.0,1.74,1.82,1.06,0
1640.0,1.41,1.84,1.05,0
1642.0,1.5,1.85,1.05,0
1644.0,1.62,1.88,0.97,0
1646.0,1.77,1.82,0.96,0
1648.0,1.83,1.65,0.84,0
1650.0,1.82,1.49,0.79,0
1652.0,1.78,1.44,0.73,0
1654.0,1.7,1.53,0.72,0
1656.0,1.62,1.41,0.81,0
1658.0,1.54,1.5,0.87,0
1660.0,1.65,1.57,0.87,0
1662.0,1.73,1.75,0.86,0
1665.0,1.53,1.94,0.84,0
1667.0,1.49,1.99,0.81,0
1669.0,1.57,1.85,0.8,0
1671.0,1.66,1.76,0.84,0
1673.0,1.7,1.7,0.89,0
1675.0,1.92,1.82,0.96,0
1676.0,1.97,1.94,1.07,0
1678.0,1.83,2.16,1.13,0
1680.0,1.72,2.32,1.14,0
1682.0,1.78,2.33,1.13,0
1684.0,1.76,2.2,1.07,0
1686.0,1.77,2.1,1.02,0
1688.0,1.79,1.99,0.95,0
1690.0,1.8,2.01,0.92,0
1692.0,1.68,2.01,0.89,0
1694.0,1.63,2.0,0.9,0
1696.0,1.69,2.13,0.94,0
1698.0,1.76,2.38,0.97,0
1700.0,1.53,2.56,1.0,0
1702.0,1.36,2.75,0.96,0
1704.0,1.5,2.75,0.9,0
1707.0,1.64,2.75,0.88,0
1709.0,1.56,2.65,0.81,0
1711.0,1.63,2.59,0.62,0
1713.0,1.57,2.6,0.51,0
1715.0,1.5,2.7,0.56,0
1717.0,1.56,2.8,0.67,0
1718.0,1.62,2.87,0.7,0
1720.0,1.6,2.97,0.71,0
1722.0,1.6,3.05,0.69,0
1724.0,1.62,3.01,0.64,0
1726.0,1.61,3.05,0.64,0
1728.0,1.63,3.13,0.61,0
1730.0,1.7,3.1,0.61,0
1732.0,1.57,3.11,0.64,0
1734.0,1.49,3.3,0.68,0
1736.0,1.55,3.3,0.72,0
1738.0,1.56,3.3,0.76,0
1740.0,1.71,3.3,0.82,0
1742.0,1.7,3.3,0.92,0
1744.0,1.66,3.3,0.95,0
1746.0,1.65,3.3,0.99,0
1748.0,1.72,3.29,1.07,0
1751.0,1.74,3.01,1.07,0
1753.0,1.7,2.31,1.08,0
1755.0,1.65,1.64,1.08,0
1757.0,1.6,0.99,1.05,0
1759.0,1.58,1.13,1.15,0
1761.0,1.58,1.21,1.21,0
1762.0,1.58,0.41,1.23,0
1764.0,1.57,0.0,1.19,0
1766.0,1.5,0.0,1.23,0
1768.0,1.46,0.0,1.24,0
1770.0,1.51,0.61,1.26,0
1772.0,1.56,1.83,1.35,0
1774.0,1.1,2.91,1.43,0
1776.0,1.09,3.3,1.45,0
1778.0,1.35,3.3,1.48,0
1780.0,1.72,3.3,1.43,0
1782.0,1.69,3.3,1.5,0
1784.0,1.59,3.3,1.5,0
1786.0,1.55,3.3,1.46,0
1788.0,1.51,3.3,1.49,0
1790.0,1.48,3.3,1.58,0
1793.0,1.46,3.3,1.58,0
1795.0,1.53,3.3,1.59,0
1797.0,1.44,3.3,1.54,0
1799.0,1.34,3.3,1.52,0
1801.0,1.37,3.3,1.55,0
1803.0,1.39,3.3,1.6,0
1804.0,1.36,3.3,1.56,0
1806.0,1.34,3.3,1.51,0
1808.0,1.29,3.3,1.44,0
1810.0,1.23,3.3,1.47,0
1812.0,1.41,3.3,1.48,0
1814.0,1.34,3.3,1.55,0
1816.0,1.14,3.3,1.56,0
1818.0,1.26,3.3,1.63,0
1820.0,1.38,3.3,1.79,0
1822.0,1.41,3.3,2.75,0
1824.0,1.35,3.3,3.3,0
1826.0,1.28,3.3,3.3,0
1828.0,1.32,3.3,3.3,0
1830.0,1.35,3.3,3.3,0
1832.0,1.37,3.3,3.3,0
1835.0,1.34,3.3,3.3,0
1837.0,1.29,3.3,3.3,0
1839.0,1.35,3.3,3.3,0
1841.0,1.44,3.3,3.3,0
1843.0,1.43,3.3,3.3,0
1845.0,1.34,3.3,3.3,0
1846.0,1.32,3.3,3.3,0
1848.0,1.33,3.3,3.3,0
1850.0,1.29,3.3,3.3,0
1852.0,1.25,3.3,3.3,0
1854.0,1.35,3.3,3.3,0
1856.0,1.33,3.3,3.3,0
1858.0,1.31,3.3,3.3,0
1860.0,1.27,3.3,3.3,0
1862.0,1.32,3.3,3.3,0
1864.0,1.41,3.3,3.3,0
1866.0,1.15,3.3,3.3,0
1868.0,1.09,3.3,3.3,0
1870.0,1.22,3.3,3.3,0
1872.0,1.33,3.3,3.3,0
1874.0,1.21,3.3,3.3,0
1876.0,0.99,3.3,3.3,0
1879.0,1.21,3.3,3.3,0
1881.0,1.42,3.3,3.3,0
1883.0,1.39,3.3,3.3,0
1885.0,1.3,3.3,3.3,0
1887.0,1.26,3.3,3.18,0
1889.0,1.24,3.3,2.99,0
1890.0,1.36,3.3,2.77,0
1892.0,1.33,3.3,2.45,0
1894.0,1.31,3.3,1.73,0
1896.0,1.28,3.3,1.37,0
1898.0,1.13,3.3,1.0,0
1900.0,1.2,3.3,0.84,0
1902.0,1.32,3.3,0.43,0
1904.0,1.21,3.3,0.07,0
1906.0,1.07,3.3,0.07,0
1908.0,1.09,3.3,0.07,0
1910.0,1.1,3.3,0.07,0
1912.0,1.27,3.3,0.07,0
1914.0,1.38,3.3,0.07,0
1916.0,1.03,3.3,0.08,0
1918.0,1.06,3.3,0.08,0
1921.0,1.13,3.3,0.07,0
1923.0,1.05,3.3,0.07,0
1925.0,0.95,3.3,0.08,0
1927.0,1.01,3.3,0.08,0
1929.0,1.01,3.3,0.08,0
1931.0,1.0,3.3,0.08,0
1932.0,0.96,3.3,0.08,0
1934.0,0.94,3.3,0.08,0
1936.0,0.92,3.3,0.08,0
1938.0,0.93,3.3,0.08,0
1940.0,0.92,3.3,0.07,0
1942.0,0.98,3.3,0.07,0
1944.0,0.98,3.3,0.08,0
1946.0,1.09,3.3,0.07,0
1948.0,1.18,3.3,0.07,0
1950.0,0.85,3.3,0.08,0
1952.0,0.7,3.3,0.07,0
1954.0,0.86,3.3,0.07,0
1956.0,1.16,3.3,0.07,0
1958.0,1.17,3.3,0.07,0
1960.0,1.13,3.3,0.07,0
1963.0,1.07,3.3,0.07,0
1965.0,1.0,3.3,0.07,0
1967.0,0.99,3.3,0.07,0
1969.0,0.97,3.3,0.08,0
1971.0,0.95,3.3,0.07,0
1973.0,1.0,3.14,0.07,0
1974.0,1.06,2.57,0.06,0
1976.0,1.09,2.24,0.05,0
1978.0,1.12,1.12,0.02,0
1980.0,1.14,0.02,0.0,0
1982.0,1.1,0.0,0.0,0
1984.0,1.09,0.0,0.0,0
1986.0,1.17,0.0,0.0,0
1988.0,1.13,0.0,0.0,0
1990.0,0.96,0.0,0.0,0
1992.0,1.05,0.0,0.0,0
1994.0,1.1,0.1,0.0,0
1996.0,1.21,0.68,0.0,0
1998.0,1.21,1.35,0.03,0
2000.0,1.28,1.66,0.03,0
2002.0,1.3,1.65,0.03,0
2004.0,1.29,2.26,0.05,0
2007.0,1.37,2.65,0.05,0
2009.0,1.39,2.72,0.05,0
2011.0,1.29,2.67,0.05,0
2013.0,1.34,2.56,0.05,0
2015.0,1.34,3.04,0.05,0
2017.0,1.37,2.56,0.04,0
2018.0,1.32,2.17,0.03,0
2020.0,1.36,1.37,0.01,0
2022.0,1.4,0.54,0.0,0
2024.0,1.4,0.0,0.0,0
2026.0,1.35,0.0,0.0,0
2028.0,1.3,1.05,0.01,0
2030.0,1.23,3.3,0.07,0
2032.0,1.29,3.3,0.1,0
2034.0,1.32,3.3,0.32,0
2036.0,1.55,3.3,0.54,0
2038.0,1.53,3.3,0.79,0
2040.0,1.33,3.3,0.99,0
2042.0,1.16,3.3,1.19,0
2044.0,1.05,3.3,1.4,0
2046.0,1.15,3.3,1.67,0
2049.0,1.19,3.3,1.98,0
2051.0,1.16,3.3,2.45,0
2053.0,1.09,3.3,3.3,0
2055.0,1.08,3.3,3.3,0
2057.0,1.12,3.3,3.3,0
2059.0,1.16,3.3,3.3,0
2060.0,1.12,3.3,3.3,0
2062.0,1.07,3.3,3.3,0
2064.0,1.05,3.3,3.3,0
2066.0,1.08,3.3,3.3,0
2068.0,1.09,3.3,3.3,0
2070.0,1.08,3.3,3.3,0
2072.0,1.01,3.3,3.3,0
2074.0,1.05,3.3,3.3,0
2076.0,0.96,3.3,3.3,0
2078.0,0.93,3.3,3.3,0
2080.0,1.06,3.3,3.3,0
2082.0,1.07,3.3,3.3,0
2084.0,1.04,3.3,3.3,0
2086.0,1.13,3.3,3.3,0
2088.0,1.12,3.3,3.3,0
2091.0,1.16,3.3,3.3,0
2093.0,1.16,3.3,3.3,0
2095.0,1.17,3.3,3.3,0
2097.0,1.18,3.3,3.3,0
2099.0,1.24,3.3,3.3,0
2101.0,1.07,3.3,3.3,0
2102.0,1.06,3.3,3.3,0
2104.0,1.18,3.3,3.3,0
2106.0,1.21,3.3,3.3,0
2108.0,1.23,3.22,3.3,0
2110.0,1.26,2.7,3.28,0
2112.0,1.23,2.12,3.27,0
2114.0,1.16,1.57,3.26,0
2116.0,1.22,1.06,3.25,0
2118.0,1.21,0.6,3.24,0
2120.0,1.28,0.18,3.23,0
2122.0,1.37,0.0,3.23,0
2124.0,1.37,0.0,3.23,0
2126.0,1.29,0.0,3.23,0
2128.0,1.29,0.0,3.23,0
2130.0,1.31,0.0,3.23,0
2132.0,1.33,0.0,3.23,0
2135.0,1.32,0.0,3.23,0
2137.0,1.32,0.0,3.23,0
2139.0,1.3,0.0,3.23,0
2141.0,1.27,0.0,3.23,0
2143.0,1.25,0.0,3.23,0
2145.0,1.27,0.0,3.05,0
2146.0,1.31,0.0,2.79,0
2148.0,1.34,0.0,2.61,0
2150.0,1.41,0.0,1.7,0
2152.0,1.46,0.0,1.63,0
2154.0,1.4,0.0,1.07,0
2156.0,1.37,0.0,0.61,0
2158.0,1.45,0.0,0.61,0
2160.0,1.55,0.0,1.14,0
2162.0,1.55,0.0,0.87,0
2164.0,1.35,0.0,0.26,0
2166.0,1.01,0.0,0.0,0
2168.0,0.75,0.0,0.0,0
2170.0,0.6,0.0,0.0,0
2172.0,0.49,0.0,0.0,0
2174.0,0.65,0.0,0.0,0
2177.0,0.64,0.0,0.0,0
2179.0,0.65,0.0,0.0,0
2181.0,0.65,0.0,0.72,0
2183.0,0.85,0.0,0.0,0
2185.0,1.08,0.0,0.0,0
2187.0,1.18,0.0,0.0,0
2188.0,1.29,0.0,0.0,0
2190.0,1.34,0.0,0.0,0
2192.0,1.39,0.0,0.0,0
2194.0,1.44,0.0,0.0,0
2196.0,1.5,0.0,0.0,0
2198.0,1.52,0.0,0.0,0
2200.0,1.64,0.0,0.0,0
2202.0,1.95,0.0,0.0,0
2204.0,2.0,0.0,0.0,0
2206.0,1.98,0.0,0.0,0
2208.0,1.95,0.0,0.0,0
2210.0,1.9,0.0,0.0,0
2212.0,1.83,0.0,0.0,0
2214.0,1.96,0.0,0.0,0
2216.0,1.99,0.0,0.0,0
2219.0,1.82,0.0,0.0,0
2221.0,1.87,0.0,0.0,0
2223.0,1.9,0.0,0.0,0
2225.0,1.89,0.0,0.0,0
2227.0,1.86,0.0,0.0,0
2229.0,1.8,0.0,0.0,0
2230.0,1.81,0.0,0.0,0
2232.0,1.9,0.0,0.0,0
2234.0,1.81,0.0,0.0,0
2236.0,2.01,0.0,0.0,0
2238.0,2.17,0.0,0.0,0
2240.0,2.24,0.0,0.0,0
2242.0,2.21,0.0,0.0,0
2244.0,2.18,0.0,0.0,0
2246.0,2.13,0.0,0.0,0
2248.0,2.24,0.0,0.0,0
2250.0,2.3,0.0,0.0,0
2252.0,2.13,0.0,0.0,0
2254.0,1.94,0.0,0.0,0
2256.0,2.06,0.0,0.0,0
2258.0,2.25,0.0,0.0,0
2260.0,2.37,0.0,0.0,0
2263.0,2.35,0.0,0.0,0
2265.0,2.41,0.0,0.0,0
2267.0,2.52,0.0,0.0,0
2269.0,2.57,0.0,0.0,0
2271.0,2.54,0.0,0.0,0
2273.0,2.51,0.0,0.0,0
2274.0,2.49,0.0,0.0,0
2276.0,2.47,0.0,0.0,0
2278.0,2.55,0.0,0.0,0
2280.0,2.52,0.0,0.0,0
2282.0,2.44,0.0,0.11,0
2284.0,2.41,0.0,0.35,0
2286.0,2.51,0.0,0.85,0
2288.0,2.48,0.0,1.22,0
2290.0,2.38,0.0,1.36,0
2292.0,2.38,0.0,1.55,0
2294.0,2.36,0.0,1.47,0
2296.0,2.15,0.0,1.41,0
2298.0,1.9,0.0,1.21,0
2300.0,2.01,0.0,0.92,0
2302.0,2.05,0.0,0.84,0
2305.0,2.01,0.0,0.93,0
2307.0,1.98,0.0,1.12,0
2309.0,1.96,0.0,1.17,0
2311.0,1.84,0.0,1.24,0
2313.0,1.69,0.0,1.26,0
2315.0,1.65,0.0,1.42,0
2316.0,1.65,0.0,1.51,0
2318.0,1.72,0.0,1.53,0
2320.0,1.73,0.0,1.57,0
2322.0,1.71,0.0,1.59,0
2324.0,1.67,0.0,1.55,0
2326.0,1.43,0.0,1.46,0
2328.0,1.4,0.0,1.59,0
2330.0,1.43,0.0,1.6,0
2332.0,1.45,0.0,1.59,0
2334.0,1.41,0.0,1.55,0
2336.0,1.41,0.0,1.59,0
2338.0,1.47,0.0,1.55,0
2340.0,1.49,0.0,1.55,0
2342.0,1.27,0.0,1.6,0
2344.0,1.29,0.0,1.81,0
2347.0,1.45,0.0,2.04,0
2349.0,1.38,0.0,2.21,0
2351.0,1.24,0.0,2.54,0
2353.0,1.35,0.0,2.83,0
2355.0,1.39,0.0,2.84,0
2357.0,1.42,0.0,2.9,0
2358.0,1.41,0.0,3.23,0
2360.0,1.38,0.0,3.22,0
2362.0,1.44,0.0,3.22,0
2364.0,1.42,0.0,3.22,0
2366.0,1.45,0.0,3.23,0
2368.0,1.5,0.0,3.23,0
2370.0,1.49,0.0,3.23,0
2372.0,1.54,0.0,3.22,0
2374.0,1.55,0.0,3.22,0
2376.0,1.58,0.0,3.23,0
2378.0,1.59,0.0,3.23,0
2380.0,1.67,0.0,3.23,0
2382.0,1.74,0.0,2.92,0
2384.0,1.79,0.0,2.83,0
2386.0,1.82,0.0,2.81,0
2388.0,1.95,0.0,3.23,0
2391.0,2.03,0.0,3.22,0
2393.0,1.98,0.0,3.22,0
2395.0,1.75,0.0,3.17,0
2397.0,1.71,0.0,2.71,0
2399.0,2.04,0.0,2.44,0
2401.0,2.12,0.0,1.86,0
2402.0,2.0,0.0,2.1,0
2404.0,1.92,0.0,2.21,0
2406.0,1.76,0.0,1.89,0
2408.0,1.68,0.0,1.7,0
2410.0,1.64,0.0,2.08,0
2412.0,1.57,0.0,2.67,0
2414.0,1.55,0.0,2.91,0
2416.0,1.49,0.0,2.88,0
2418.0,1.46,0.0,3.13,0
2420.0,1.44,0.0,3.23,0
2422.0,1.39,0.0,3.23,0
2424.0,1.34,0.0,3.23,0
2426.0,1.3,0.0,3.23,0
2428.0,1.35,0.0,3.24,0
2430.0,1.33,0.0,3.23,0
2433.0,1.27,0.0,3.25,0
2435.0,1.25,0.0,3.23,0
2437.0,1.18,0.0,3.23,0
2439.0,1.02,0.0,3.23,0
2441.0,0.95,0.0,3.24,0
2443.0,0.87,0.0,3.23,0
2444.0,0.71,0.0,3.24,0
2446.0,0.61,0.0,3.23,0
2448.0,0.63,0.0,3.24,0
2450.0,0.55,0.0,3.23,0
2452.0,0.52,0.0,3.23,0
2454.0,0.94,0.0,3.23,0
2456.0,0.98,0.0,3.23,0
2458.0,0.86,0.0,3.23,0
2460.0,0.87,0.0,3.24,0
2462.0,0.92,0.0,3.24,0
2464.0,0.9,0.0,3.23,0
2466.0,0.89,0.0,3.23,0
2468.0,0.94,0.0,3.24,0
2470.0,0.97,0.0,3.23,0
2472.0,0.95,0.01,3.24,0
2475.0,0.91,0.05,3.23,0
2477.0,0.9,0.08,3.24,0
2479.0,0.92,0.12,3.24,0
2481.0,0.96,0.16,3.24,0
2483.0,0.88,0.21,3.24,0
2485.0,0.86,0.25,3.25,0
2486.0,0.96,0.29,3.25,0
2488.0,1.06,0.33,3.23,0
2490.0,0.86,0.35,3.23,0
2492.0,0.56,0.38,3.24,0
2494.0,0.77,0.4,3.24,0
2496.0,0.99,0.43,3.23,0
2498.0,1.14,0.46,3.24,0
2500.0,1.21,0.49,3.25,0
2502.0,1.26,0.53,3.24,0
2504.0,1.35,0.56,3.23,0
2506.0,1.43,0.59,3.25,0
2508.0,1.54,0.61,3.25,0
2510.0,1.75,0.64,3.23,0
2512.0,1.85,0.65,3.24,0
2514.0,1.87,0.67,3.24,0
2516.0,1.84,0.69,3.24,0
2519.0,1.75,0.71,3.24,0
2521.0,1.7,0.74,3.25,0
2523.0,1.63,0.76,3.22,0
2525.0,1.53,0.79,3.25,0
2527.0,1.55,0.82,3.23,0
2529.0,1.63,0.84,3.25,0
2530.0,1.67,0.85,3.25,0
2532.0,1.66,0.86,3.25,0
2534.0,1.58,0.88,3.25,0
2536.0,1.54,0.89,3.25,0
2538.0,1.67,0.91,3.25,0
2540.0,1.78,0.93,3.24,0
2542.0,1.83,0.95,3.24,0
2544.0,1.86,0.98,3.25,0
2546.0,1.95,1.0,3.25,0
2548.0,1.95,1.01,3.25,0
2550.0,1.97,1.03,3.25,0
2552.0,1.9,1.04,3.24,0
2554.0,1.83,1.04,3.25,0
2556.0,1.81,1.05,3.25,0
2558.0,1.81,1.07,3.25,0
2561.0,1.9,1.09,3.25,0
2563.0,1.97,1.11,3.25,0
2565.0,1.95,1.14,3.25,0
2567.0,1.92,1.15,3.25,0
2569.0,1.95,1.17,3.25,0
2571.0,1.93,1.17,3.25,0
2572.0,1.93,1.18,3.25,0
2574.0,2.04,1.19,2.91,0
2576.0,2.11,1.19,2.5,0
2578.0,2.18,1.21,1.8,0
2580.0,2.13,1.22,1.07,0
2582.0,2.19,1.24,0.42,0
2584.0,2.38,1.25,0.01,0
2586.0,2.45,1.27,0.01,0
2588.0,2.53,1.28,0.01,0
2590.0,2.65,1.28,0.01,0
2592.0,2.66,1.29,0.01,0
2594.0,2.63,1.29,0.01,0
2596.0,2.65,1.3,0.01,0
2598.0,2.64,1.33,0.01,0
2600.0,2.6,1.36,0.01,0
2603.0,2.78,1.39,0.02,0
2605.0,2.95,1.41,0.02,0
2607.0,2.98,1.44,0.02,0
2609.0,2.95,1.46,0.02,0
2611.0,2.96,1.47,0.02,0
2613.0,2.98,1.48,0.02,0
2614.0,2.93,1.49,0.02,0
2616.0,2.87,1.5,0.02,0
2618.0,2.87,1.52,0.02,0
2620.0,3.22,1.54,0.02,0
2622.0,3.18,1.56,0.02,0
2624.0,2.91,1.58,0.02,0
2626.0,2.79,1.6,0.02,0
2628.0,2.83,1.61,0.02,0
2630.0,2.88,1.61,0.02,0
2632.0,2.83,1.62,0.02,0
2634.0,2.65,1.62,0.02,0
2636.0,2.52,1.62,0.02,0
2638.0,2.53,1.63,0.02,0
2640.0,2.47,1.65,0.02,0
2642.0,2.42,1.66,0.02,0
2644.0,2.43,1.68,0.02,0
2647.0,2.35,1.69,0.03,0
2649.0,2.29,1.7,0.02,0
2651.0,2.23,1.71,0.02,0
2653.0,2.25,1.71,0.02,0
2655.0,2.2,1.71,0.02,0
2657.0,2.18,1.72,0.02,0
2658.0,2.13,1.74,0.02,0
2660.0,2.09,1.75,0.02,0
2662.0,2.13,1.76,0.02,0
2664.0,2.17,1.77,0.02,0
2666.0,2.12,1.78,0.01,0
2668.0,2.07,1.79,0.02,0
2670.0,2.06,1.79,0.02,0
2672.0,2.0,1.79,0.03,0
2674.0,1.97,1.79,0.02,0
2676.0,1.92,1.8,0.02,0
2678.0,1.88,1.81,0.02,0
2680.0,1.88,1.82,0.02,0
2682.0,1.79,1.83,0.02,0
2684.0,1.7,1.85,0.02,0
2686.0,1.66,1.86,0.02,0
2689.0,1.6,1.89,0.02,0
2691.0,1.49,1.95,0.02,0
2693.0,1.27,2.01,0.02,0
2695.0,1.21,2.07,0.03,0
2697.0,1.29,2.12,0.03,0
2699.0,1.23,2.17,0.03,0
2700.0,1.18,2.22,0.04,0
2702.0,1.17,2.26,0.04,0
2704.0,1.24,2.3,0.04,0
2706.0,1.45,2.33,0.04,0
2708.0,1.74,2.35,0.04,0
2710.0,1.97,2.37,0.04,0
2712.0,2.09,2.39,0.04,0
2714.0,2.1,2.4,0.04,0
2716.0,2.06,2.42,0.04,0
2718.0,2.11,2.44,0.04,0
2720.0,1.99,2.45,0.04,0
2722.0,1.97,2.46,0.04,0
2724.0,2.1,2.46,0.04,0
2726.0,2.18,2.47,0.04,0
2728.0,2.15,2.47,0.04,0
2731.0,2.14,2.46,0.04,0
2733.0,2.04,2.46,0.04,0
2735.0,1.98,2.46,0.04,0
2737.0,1.95,2.46,0.04,0
2739.0,2.01,2.46,0.04,0
2741.0,2.07,2.46,0.04,0
2742.0,2.02,2.45,0.04,0
2744.0,1.93,2.45,0.03,0
2746.0,1.99,2.44,0.04,0
2748.0,2.06,2.43,0.04,0
2750.0,2.05,2.42,0.03,0
2752.0,1.87,2.41,0.03,0
2754.0,1.71,2.4,0.03,0
2756.0,1.72,2.39,0.03,0
2758.0,1.9,2.38,0.03,0
2760.0,1.97,2.37,0.03,0
2762.0,1.78,2.37,0.03,0
2764.0,1.64,2.35,0.03,0
2766.0,1.76,2.34,0.03,0
2768.0,2.02,2.33,0.03,0
2770.0,2.2,2.31,0.03,0
2772.0,2.38,2.3,0.03,0
2775.0,2.63,2.29,0.03,0
2777.0,2.89,2.28,0.03,0
2779.0,3.05,2.27,0.02,0
2781.0,3.09,2.26,0.03,0
2783.0,3.24,2.25,0.03,0
2785.0,3.3,2.24,0.03,0
2786.0,3.3,2.23,0.02,0
2788.0,3.3,2.21,0.03,0
2790.0,3.3,2.19,0.03,0
2792.0,3.3,2.18,0.03,0
2794.0,3.3,2.17,0.02,0
2796.0,3.3,2.16,0.03,0
2798.0,3.3,2.15,0.03,0
2800.0,3.3,2.14,0.03,0
2802.0,3.3,2.13,0.03,0
2804.0,3.3,2.12,0.03,0
2806.0,3.3,2.11,0.03,0
2808.0,3.3,2.09,0.03,0
2810.0,3.3,2.08,0.03,0
2812.0,3.3,2.06,0.03,0
2814.0,3.16,2.05,0.03,0
2817.0,2.95,2.04,0.03,0
2819.0,2.81,2.03,0.03,0
2821.0,2.9,2.03,0.03,0
2823.0,2.61,2.02,0.03,0
2825.0,2.39,2.01,0.02,0
2827.0,2.32,2.0,0.03,0
2828.0,2.09,1.99,0.16,0
2830.0,2.07,1.97,0.32,0
2832.0,2.04,1.96,0.59,0
2834.0,2.07,1.95,0.83,0
2836.0,1.91,1.94,1.01,0
2838.0,1.9,1.94,1.0,0
2840.0,1.86,1.93,1.1,0
2842.0,1.77,1.92,1.11,0
2844.0,1.55,1.92,1.05,0
2846.0,1.45,1.91,0.91,0
2848.0,1.38,1.9,0.92,0
2850.0,1.02,1.88,1.05,0
2852.0,1.03,1.87,1.21,0
2854.0,0.88,1.86,1.42,0
2856.0,0.73,1.86,1.74,0
2859.0,0.58,1.85,2.0,0
2861.0,0.44,1.85,2.35,0
2863.0,0.31,1.85,2.69,0
2865.0,0.17,1.84,2.93,0
2867.0,0.14,1.83,3.25,0
2869.0,0.4,1.82,3.26,0
2870.0,0.25,1.81,3.26,0
2872.0,0.0,1.8,3.26,0
2874.0,0.05,1.79,3.26,0
2876.0,0.13,1.79,3.26,0
2878.0,0.08,1.79,3.26,0
2880.0,0.15,1.78,3.26,0
2882.0,0.11,1.78,3.26,0
2884.0,0.25,1.77,3.26,0
2886.0,0.33,1.77,3.26,0
2888.0,0.16,1.76,3.26,0
2890.0,0.03,1.75,3.26,0
2892.0,0.02,1.74,3.26,0
2894.0,0.0,1.74,3.26,0
2896.0,0.0,1.73,3.26,0
2898.0,0.0,1.73,3.26,0
2900.0,0.0,1.73,3.26,0
2903.0,0.0,1.73,3.26,0
2905.0,0.0,1.72,3.26,0
2907.0,0.0,1.72,3.26,0
2909.0,0.0,1.71,3.26,0
2911.0,0.0,1.7,3.26,0
2913.0,0.0,1.69,3.26,0
2914.0,0.0,1.69,3.26,0
2916.0,0.0,1.68,3.26,0
2918.0,0.0,1.68,3.26,0
2920.0,0.0,1.68,3.25,0
2922.0,0.0,1.68,3.26,0
2924.0,0.0,1.68,3.26,0
2926.0,0.0,1.67,3.26,0
2928.0,0.0,1.66,3.26,0
2930.0,0.0,1.66,3.25,0
2932.0,0.0,1.65,3.26,0
2934.0,0.0,1.65,3.26,0
2936.0,0.0,1.65,3.25,0
2938.0,0.0,1.64,2.96,0
2940.0,0.0,1.64,2.72,0
2942.0,0.0,1.64,2.42,0
2945.0,0.0,1.64,2.1,0
2947.0,0.0,1.63,1.87,0
2949.0,0.0,1.63,1.83,0
2951.0,0.0,1.62,1.75,0
2953.0,0.0,1.62,1.79,0
2955.0,0.0,1.61,2.1,0
2956.0,0.0,1.61,2.42,0
2958.0,0.0,1.61,2.74,0
2960.0,0.0,1.61,3.11,0
2962.0,0.0,1.61,3.25,0
2964.0,0.0,1.61,3.25,0
2966.0,0.0,1.6,3.25,0
2968.0,0.0,1.6,3.25,0
2970.0,0.0,1.59,3.25,0
2972.0,0.0,1.58,3.25,0
2974.0,0.0,1.58,3.25,0
2976.0,0.0,1.58,3.25,0
2978.0,0.0,1.58,3.25,0
2980.0,0.0,1.58,3.25,0
2982.0,0.0,1.58,3.25,0
2984.0,0.0,1.58,3.25,0
2987.0,0.0,1.57,3.25,0
2989.0,0.0,1.57,3.25,0
2991.0,0.05,1.56,3.25,0
2993.0,0.22,1.56,3.26,0
2995.0,0.24,1.55,3.25,0
2997.0,0.1,1.55,3.26,0
2999.0,0.03,1.55,3.26,0
3000.0,0.05,1.56,3.25,0
3002.0,0.03,1.56,3.25,0
3004.0,0.15,1.56,3.25,0
3006.0,0.27,1.55,3.26,0
3008.0,0.44,1.55,3.25,0
3010.0,0.48,1.55,3.25,0
3012.0,0.47,1.54,3.25,0
3014.0,0.61,1.54,3.25,0
3016.0,0.73,1.54,3.25,0
3018.0,0.78,1.54,3.26,0
3020.0,0.85,1.55,3.26,0
3022.0,0.83,1.55,3.26,0
3024.0,0.77,1.54,3.26,0
3026.0,0.72,1.54,3.26,0
3028.0,0.7,1.54,3.25,0
3031.0,0.69,1.53,3.25,0
3033.0,0.71,1.53,3.25,0
3035.0,0.84,1.53,3.25,0
3037.0,0.98,1.53,3.25,0
3039.0,1.05,1.54,3.25,0
3041.0,0.88,1.54,3.25,0
3042.0,0.96,1.54,3.25,0
3044.0,1.1,1.54,3.25,0
3046.0,1.25,1.53,3.25,0
3048.0,1.36,1.53,3.25,0
3050.0,1.39,1.52,3.25,0
3052.0,1.36,1.52,3.25,0
3054.0,1.4,1.52,3.26,0
3056.0,1.45,1.52,3.25,0
3058.0,1.55,1.52,3.25,0
3060.0,1.73,1.53,3.25,0
3062.0,1.92,1.53,3.25,0
3064.0,1.91,1.53,3.26,0
3066.0,1.97,1.53,3.25,0
3068.0,1.94,1.52,3.26,0
3070.0,1.85,1.52,3.25,0
3073.0,1.78,1.51,3.26,0
3075.0,1.91,1.51,3.26,0
3077.0,2.07,1.51,3.26,0
3079.0,2.25,1.52,3.25,0
3081.0,2.33,1.52,3.26,0
3083.0,2.45,1.52,3.25,0
3084.0,2.49,1.52,3.26,0
3086.0,2.54,1.52,3.26,0
3088.0,2.57,1.51,3.26,0
3090.0,2.59,1.51,3.25,0
3092.0,2.53,1.5,3.26,0
3094.0,2.55,1.5,3.25,0
3096.0,2.62,1.5,3.25,0
3098.0,2.66,1.51,3.26,0
3100.0,2.64,1.51,3.25,0
3102.0,2.66,1.51,3.25,0
3104.0,2.69,1.51,3.25,0
3106.0,2.68,1.51,3.25,0
3108.0,2.77,1.51,3.25,0
3110.0,2.81,1.5,3.25,0
3112.0,2.77,1.5,3.25,0
3115.0,2.7,1.5,3.25,0
3117.0,2.57,1.5,3.25,0
3119.0,2.46,1.5,3.25,0
3121.0,2.3,1.5,3.25,0
3123.0,2.26,1.51,3.25,0
3125.0,2.22,1.5,3.25,0
3127.0,2.0,1.5,3.25,0
3128.0,1.86,1.5,3.25,0
3130.0,2.07,1.5,3.25,0
3132.0,2.15,1.49,1.69,0
3134.0,2.2,1.49,0.03,0
3136.0,2.16,1.49,0.03,0
3138.0,2.28,1.49,0.03,0
3140.0,2.55,1.5,0.03,0
3142.0,2.56,1.5,0.03,0
3144.0,2.56,1.5,0.03,0
3146.0,2.7,1.49,0.03,0
3148.0,2.87,1.49,0.03,0
3150.0,3.11,1.49,0.03,0
3152.0,3.17,1.49,0.03,0
3154.0,3.15,1.48,0.03,0
3156.0,3.06,1.49,0.03,0
3159.0,2.95,1.49,0.03,0
3161.0,2.85,1.49,0.03,0
3163.0,2.84,1.49,0.02,0
3165.0,2.9,1.49,0.02,0
3167.0,3.01,1.49,0.02,0
3169.0,3.0,1.49,0.02,0
3170.0,2.86,1.48,0.02,0
3172.0,2.76,1.48,0.03,0
3174.0,2.66,1.48,0.02,0
3176.0,2.61,1.48,0.02,0
3178.0,2.51,1.48,0.02,0
3180.0,2.37,1.48,0.02,0
3182.0,2.29,1.49,0.03,0
3184.0,2.15,1.49,0.03,0
3186.0,1.86,1.48,0.03,0
3188.0,1.54,1.48,0.03,0
3190.0,1.54,1.48,0.03,0
3192.0,1.55,1.47,0.03,0
3194.0,1.44,1.47,0.03,0
3196.0,1.43,1.48,0.02,0
3198.0,1.33,1.48,0.02,0
3201.0,1.17,1.48,0.03,0
3203.0,0.94,1.48,0.03,0
3205.0,0.72,1.48,0.03,0
3207.0,0.49,1.48,0.03,0
3209.0,0.36,1.48,0.03,0
3211.0,0.2,1.47,0.02,0
3212.0,0.08,1.47,0.03,0
3214.0,0.0,1.47,0.03,0
3216.0,0.0,1.47,0.03,0
3218.0,0.0,1.48,0.03,0
3220.0,0.0,1.48,0.03,0
3222.0,0.0,1.48,0.03,0
3224.0,0.0,1.48,0.02,0
3226.0,0.0,1.48,0.02,0
3228.0,0.0,1.47,0.02,0
3230.0,0.0,1.47,0.02,0
3232.0,0.0,1.47,0.02,0
3234.0,0.0,1.47,0.03,0
3236.0,0.0,1.47,0.03,0
3238.0,0.0,1.47,0.02,0
3240.0,0.0,1.48,0.02,0
3243.0,0.0,1.48,0.02,0
3245.0,0.0,1.48,0.02,0
3247.0,0.0,1.47,0.02,0
3249.0,0.0,1.47,0.03,0
3251.0,0.0,1.47,0.02,0
3253.0,0.0,1.47,0.02,0
3255.0,0.0,1.47,0.02,0
3256.0,0.0,1.47,0.02,0
3258.0,0.0,1.47,0.02,0
3260.0,0.0,1.47,0.02,0
3262.0,0.0,1.47,0.03,0
3264.0,0.0,1.48,0.02,0
3266.0,0.0,1.47,0.02,0
3268.0,0.0,1.47,0.02,0
3270.0,0.0,1.47,0.02,0
3272.0,0.0,1.46,0.02,0
3274.0,0.0,1.46,0.03,0
3276.0,0.0,1.47,0.03,0
3278.0,0.0,1.47,0.02,0
3280.0,0.0,1.47,0.02,0
3282.0,0.0,1.47,0.02,0
3284.0,0.0,1.47,0.02,0
3287.0,0.0,1.47,0.02,0
3289.0,0.03,1.47,0.02,0
3291.0,0.12,1.46,0.02,0
3293.0,0.17,1.46,0.03,0
3295.0,0.31,1.46,0.02,0
3297.0,0.44,1.46,0.02,0
3298.0,0.51,1.46,0.02,0
3300.0,0.65,1.47,0.02,0
3302.0,0.73,1.47,0.02,0
3304.0,0.88,1.47,0.02,0
3306.0,0.91,1.47,0.02,0
3308.0,0.74,1.47,0.02,0
3310.0,0.6,1.46,0.02,0
3312.0,0.65,1.46,0.02,0
3314.0,0.56,1.46,0.02,0
3316.0,0.53,1.46,0.02,0
3318.0,0.64,1.46,0.02,0
3320.0,0.57,1.46,0.02,0
3322.0,0.5,1.46,0.02,0
3324.0,0.5,1.46,0.02,0
3326.0,0.51,1.46,0.02,0
3329.0,0.54,1.46,0.02,0
3331.0,0.59,1.46,0.02,0
3333.0,0.61,1.46,0.02,0
3335.0,0.68,1.45,0.02,0
3337.0,0.71,1.46,0.02,0
3339.0,0.69,1.46,0.02,0
3340.0,0.61,1.46,0.03,0
3342.0,0.49,1.46,0.02,0
3344.0,0.51,1.46,0.03,0
3346.0,0.55,1.46,0.02,0
3348.0,0.63,1.46,0.02,0
3350.0,0.64,1.45,0.02,0
3352.0,0.67,1.45,0.02,0
3354.0,0.72,1.45,0.03,0
3356.0,0.75,1.45,0.02,0
3358.0,0.8,1.46,0.02,0
3360.0,0.87,1.46,0.02,0
3362.0,0.95,1.46,0.05,0
3364.0,0.9,1.46,0.22,0
3366.0,0.9,1.46,0.51,0
3368.0,1.1,1.46,0.58,0
3371.0,1.26,1.45,0.5,0
3373.0,1.35,1.45,0.03,0
3375.0,1.41,1.45,0.02,0
3377.0,1.43,1.45,0.06,0
3379.0,1.42,1.46,0.31,0
3381.0,1.42,1.46,0.41,0
3383.0,1.42,1.46,0.4,0
3384.0,1.41,1.46,0.38,0
3386.0,1.35,1.46,0.19,0
3388.0,1.28,1.46,0.02,0
3390.0,1.23,1.45,0.02,0
3392.0,1.16,1.45,0.08,0
3394.0,1.13,1.45,0.4,0
3396.0,1.14,1.45,0.56,0
3398.0,1.16,1.46,0.55,0
3400.0,1.2,1.46,0.66,0
3402.0,1.23,1.46,0.73,0
3404.0,1.13,1.46,0.75,0
3406.0,1.02,1.46,0.54,0
3408.0,0.99,1.46,0.38,0
3410.0,0.95,1.45,0.39,0
3412.0,0.93,1.45,0.32,0
3415.0,0.88,1.45,0.02,0
3417.0,0.79,1.45,0.02,0
3419.0,0.76,1.46,0.02,0
3421.0,0.77,1.46,0.02,0
3423.0,0.75,1.46,0.02,0
3425.0,0.72,1.46,0.02,0
3426.0,0.72,1.46,0.08,0
3428.0,0.87,1.46,0.03,0
3430.0,0.98,1.46,0.17,0
3432.0,1.05,1.45,0.26,0
3434.0,1.07,1.45,0.03,0
3436.0,1.12,1.45,0.22,0
3438.0,1.07,1.46,0.36,0
3440.0,0.84,1.46,0.57,0
3442.0,0.64,1.46,0.54,0
3444.0,0.6,1.46,0.85,0
3446.0,0.54,1.46,1.32,0
3448.0,0.45,1.46,1.56,0
3450.0,0.46,1.45,1.44,0
3452.0,0.53,1.45,1.34,0
3454.0,0.55,1.45,1.54,0
3457.0,0.52,1.45,1.85,0
3459.0,0.57,1.45,2.02,0
3461.0,0.66,1.46,2.36,0
3463.0,0.66,1.46,2.76,0
3465.0,0.67,1.46,3.18,0
3467.0,0.68,1.46,3.26,0
3468.0,0.68,1.46,3.26,0
3470.0,0.8,1.45,3.25,0
3472.0,0.85,1.45,3.26,0
3474.0,0.81,1.45,3.25,0
3476.0,0.88,1.45,3.25,0
3478.0,1.02,1.46,3.25,0
3480.0,1.15,1.46,3.26,0
3482.0,1.25,1.46,3.25,0
3484.0,1.36,1.46,3.25,0
3486.0,1.45,1.46,3.25,0
3488.0,1.55,1.45,3.26,0
3490.0,1.62,1.45,3.26,0
3492.0,1.64,1.45,3.26,0
3494.0,1.7,1.45,3.26,0
3496.0,1.88,1.45,3.25,0
3499.0,1.95,1.46,3.26,0
3501.0,1.95,1.46,3.25,0
3503.0,1.94,1.46,3.25,0
3505.0,1.84,1.46,3.25,0
3507.0,1.77,1.46,3.25,0
3509.0,1.81,1.46,3.25,0
3511.0,1.8,1.45,3.25,0
3512.0,1.78,1.45,3.25,0
3514.0,1.77,1.45,3.26,0
3516.0,1.97,1.45,3.26,0
3518.0,1.9,1.45,3.25,0
3520.0,1.88,1.46,3.26,0
3522.0,2.01,1.46,3.25,0
3524.0,2.05,1.46,3.26,0
3526.0,2.03,1.46,3.25,0
3528.0,2.05,1.46,3.25,0
3530.0,2.03,1.45,3.26,0
3532.0,1.95,1.45,3.26,0
3534.0,2.02,1.45,3.25,0
3536.0,1.99,1.45,3.26,0
3538.0,2.01,1.46,3.26,0
3540.0,2.08,1.46,3.26,0
3543.0,2.16,1.46,3.26,0
3545.0,2.21,1.46,3.26,0
3547.0,2.18,1.46,3.26,0
3549.0,2.17,1.46,3.26,0
3551.0,2.19,1.45,3.25,0
3553.0,2.28,1.45,3.25,0
3554.0,2.19,1.45,3.25,0
3556.0,2.07,1.45,3.25,0
3558.0,1.91,1.45,3.25,0
3560.0,1.82,1.46,3.25,0
3562.0,1.69,1.46,3.25,0
3564.0,1.68,1.46,3.25,0
3566.0,1.61,1.45,3.25,0
3568.0,1.6,1.45,3.25,0
3570.0,1.64,1.45,3.25,0
3572.0,1.67,1.45,3.25,0
3574.0,1.56,1.45,3.25,0
3576.0,1.48,1.45,3.25,0
3578.0,1.47,1.46,3.25,0
3580.0,1.44,1.46,3.25,0
3582.0,1.56,1.46,3.25,0
3585.0,1.73,1.46,3.25,0
3587.0,1.92,1.46,3.25,0
3589.0,1.91,1.45,3.25,0
3591.0,1.78,1.45,3.25,0
3593.0,1.71,1.45,3.25,0
3595.0,1.66,1.45,3.25,0
3597.0,1.67,1.45,3.25,0
3598.0,1.61,1.46,3.25,0
3600.0,1.55,1.46,3.25,0
3602.0,1.52,1.46,3.25,0
3604.0,1.48,1.46,3.26,0
3606.0,1.41,1.46,3.26,0
3608.0,1.41,1.46,3.26,0
3610.0,1.36,1.45,3.25,0
3612.0,1.26,1.45,3.26,0
3614.0,1.11,1.45,3.26,0
3616.0,0.97,1.46,3.26,0
3618.0,0.97,1.46,3.26,0
3620.0,0.98,1.46,3.26,0
3622.0,1.07,1.47,3.26,0
3624.0,1.14,1.47,3.25,0
3627.0,1.2,1.46,3.26,0
3629.0,1.28,1.46,3.26,0
3631.0,1.35,1.46,3.26,0
3633.0,1.39,1.46,3.26,0
3635.0,1.45,1.46,3.26,0
3637.0,1.44,1.46,3.26,0
3639.0,1.44,1.46,3.26,0
3640.0,1.44,1.47,3.26,0
3642.0,1.47,1.47,3.26,0
3644.0,1.47,1.47,3.26,0
3646.0,1.48,1.46,3.26,0
3648.0,1.51,1.46,3.27,0
3650.0,1.5,1.45,3.26,0
3652.0,1.5,1.46,3.26,0
3654.0,1.5,1.45,3.25,0
3656.0,1.48,1.46,3.26,0
3658.0,1.46,1.46,3.26,0
3660.0,1.46,1.46,3.26,0
3662.0,1.53,1.46,3.26,0
3664.0,1.5,1.46,3.26,0
3666.0,1.43,1.46,3.26,0
3668.0,1.43,1.46,3.26,0
3671.0,1.52,1.45,3.26,0
3673.0,1.55,1.45,3.26,0
3675.0,1.52,1.45,3.25,0
3677.0,1.49,1.45,3.25,0
3679.0,1.5,1.46,3.25,0
3681.0,1.45,1.46,3.25,0
3682.0,1.58,1.46,3.25,0
3684.0,1.76,1.46,3.25,0
3686.0,1.81,1.45,3.25,0
3688.0,1.79,1.45,3.25,0
3690.0,1.87,1.45,3.13,0
3692.0,1.9,1.45,3.05,0
3694.0,1.95,1.45,2.98,0
3696.0,2.05,1.45,3.05,0
3698.0,2.13,1.45,3.08,0
3700.0,2.13,1.45,3.05,0
3702.0,2.21,1.45,2.65,0
3704.0,2.24,1.45,2.22,0
3706.0,2.3,1.45,2.22,0
3708.0,2.42,1.45,2.3,0
3710.0,2.45,1.45,2.32,0
3713.0,2.4,1.45,2.4,0
3715.0,2.5,1.45,2.25,0
3717.0,2.62,1.45,2.13,0
3719.0,2.73,1.45,1.97,0
3721.0,2.76,1.45,1.95,0
3723.0,2.73,1.45,1.95,0
3725.0,2.75,1.45,2.05,0
3726.0,2.78,1.45,2.07,0
3728.0,2.86,1.45,1.97,0
3730.0,2.98,1.44,1.85,0
3732.0,3.03,1.44,1.74,0
3734.0,3.05,1.45,1.5,0
3736.0,3.12,1.45,1.57,0
3738.0,3.22,1.45,1.43,0
3740.0,3.23,1.45,1.2,0
3742.0,3.24,1.45,1.01,0
3744.0,3.24,1.45,0.71,0
3746.0,3.19,1.45,0.55,0
3748.0,3.2,1.45,0.38,0
3750.0,3.23,1.45,0.28,0
3752.0,3.18,1.45,0.24,0
3755.0,3.12,1.45,0.16,0
3757.0,3.04,1.45,0.28,0
3759.0,2.99,1.45,0.3,0
3761.0,2.88,1.45,0.2,0
3763.0,2.78,1.45,0.19,0
3765.0,2.69,1.46,0.18,0
3767.0,2.62,1.45,0.17,0
3768.0,2.56,1.45,0.04,0
3770.0,2.58,1.45,0.02,0
3772.0,2.5,1.45,0.03,0
3774.0,2.39,1.45,0.03,0
3776.0,2.26,1.45,0.03,0
3778.0,2.23,1.45,0.06,0
3780.0,2.14,1.45,0.98,0
3782.0,2.03,1.46,2.29,0
3784.0,1.91,1.46,2.82,0
3786.0,1.76,1.45,2.86,0
3788.0,1.65,1.45,2.75,0
3790.0,1.64,1.45,2.64,0
3792.0,1.59,1.45,2.51,0
3794.0,1.48,1.45,2.44,0
3796.0,1.38,1.45,2.41,0
3799.0,1.18,1.45,2.52,0
3801.0,1.06,1.46,2.5,0
3803.0,1.02,1.46,2.52,0
3805.0,0.95,1.46,2.46,0
3807.0,0.84,1.45,2.24,0
3809.0,0.75,1.45,2.11,0
3810.0,0.68,1.45,2.08,0
3812.0,0.63,1.45,1.97,0
3814.0,0.57,1.45,1.58,0
3816.0,0.57,1.45,1.35,0
3818.0,0.57,1.45,1.09,0
3820.0,0.56,1.46,1.03,0
3822.0,0.47,1.46,1.16,0
3824.0,0.43,1.46,1.1,0
3826.0,0.39,1.46,0.87,0
3828.0,0.31,1.45,0.65,0
3830.0,0.33,1.45,0.68,0
3832.0,0.37,1.45,0.85,0
3834.0,0.34,1.45,1.1,0
3836.0,0.31,1.45,1.11,0
3838.0,0.33,1.45,0.96,0
3841.0,0.35,1.46,1.05,0
3843.0,0.42,1.46,1.21,0
3845.0,0.44,1.46,0.02,0
3847.0,0.35,1.46,0.02,0
3849.0,0.36,1.46,0.02,0
3851.0,0.35,1.45,0.02,0
3853.0,0.36,1.45,0.02,0
3854.0,0.35,1.45,0.02,0
3856.0,0.35,1.45,0.02,0
3858.0,0.3,1.45,0.02,0
3860.0,0.23,1.46,0.01,0
3862.0,0.15,1.46,0.02,0
3864.0,0.16,1.46,0.01,0
3866.0,0.34,1.46,0.02,0
3868.0,0.39,1.45,0.02,0
3870.0,0.4,1.45,0.01,0
3872.0,0.42,1.45,0.02,0
3874.0,0.39,1.45,0.01,0
3876.0,0.38,1.45,0.01,0
3878.0,0.55,1.45,0.02,0
3880.0,0.63,1.46,0.02,0
3883.0,0.65,1.46,0.02,0
3885.0,0.69,1.46,0.11,0
3887.0,0.7,1.46,0.91,0
3889.0,0.72,1.46,2.02,0
3891.0,0.77,1.45,2.04,0
3893.0,0.82,1.45,1.56,0
3895.0,0.84,1.45,1.97,0
3896.0,0.87,1.45,1.74,0
3898.0,0.94,1.46,2.19,0
3900.0,0.99,1.46,2.95,0
3902.0,0.95,1.46,3.26,0
3904.0,0.9,1.46,3.26,0
3906.0,0.94,1.46,3.26,0
3908.0,1.03,1.45,3.26,0
3910.0,1.09,1.45,3.26,0
3912.0,0.94,1.45,3.26,0
3914.0,0.88,1.45,3.26,0
3916.0,1.15,1.45,3.26,0
3918.0,1.28,1.45,3.26,0
3920.0,1.33,1.45,3.26,0
3922.0,1.4,1.46,3.26,0
3924.0,1.42,1.46,3.26,0
3927.0,1.4,1.45,3.27,0
3929.0,1.43,1.45,3.26,0
3931.0,1.5,1.45,3.27,0
3933.0,1.56,1.45,3.25,0
3935.0,1.55,1.45,3.26,0
3937.0,1.57,1.45,3.26,0
3938.0,1.57,1.45,3.26,0
3940.0,1.56,1.46,3.26,0
3942.0,1.55,1.46,3.26,0
3944.0,1.55,1.46,3.26,0
3946.0,1.57,1.46,3.26,0
3948.0,1.53,1.45,3.26,0
3950.0,1.39,1.45,3.26,0
3952.0,1.46,1.45,3.26,0
3954.0,1.48,1.45,3.26,0
3956.0,1.47,1.45,3.26,0
3958.0,1.49,1.46,3.26,0
3960.0,1.52,1.46,3.26,0
3962.0,1.55,1.46,2.86,0
3964.0,1.47,1.46,2.42,0
3966.0,1.39,1.45,1.69,0
3969.0,1.5,1.45,1.34,0
3971.0,1.48,1.45,1.24,0
3973.0,1.39,1.45,1.21,0
3975.0,1.3,1.45,1.01,0
3977.0,1.26,1.45,1.03,0
3979.0,1.34,1.45,0.75,0
3981.0,1.33,1.46,0.53,0
3982.0,1.29,1.46,0.61,0
3984.0,1.31,1.46,0.43,0
3986.0,1.32,1.45,0.17,0
3988.0,1.34,1.45,0.38,0
3990.0,1.35,1.45,0.52,0
3992.0,1.33,1.45,0.51,0
3994.0,1.3,1.45,0.75,0
3996.0,1.32,1.45,0.8,0
3998.0,1.33,1.45,0.7,0
4000.0,1.34,1.46,0.52,0
4002.0,1.31,1.46,0.55,0
4004.0,1.23,1.46,0.3,0
4006.0,1.29,1.45,0.21,0
4008.0,1.33,1.45,0.02,0
4011.0,1.15,1.45,0.13,0
4013.0,0.94,1.45,0.27,0
4015.0,0.96,1.45,0.3,0
4017.0,1.06,1.45,0.02,0
4019.0,1.14,1.45,0.02,0
4021.0,1.25,1.46,0.01,0
4023.0,1.25,1.46,0.01,0
4024.0,1.27,1.46,0.01,0
4026.0,1.35,1.46,0.01,0
4028.0,1.39,1.45,0.02,0
4030.0,1.42,1.45,0.02,0
4032.0,1.45,1.45,0.02,0
4034.0,1.45,1.45,0.02,0
4036.0,1.45,1.45,0.02,0
4038.0,1.49,1.45,0.02,0
4040.0,1.55,1.46,0.02,0
4042.0,1.52,1.46,0.02,0
4044.0,1.54,1.46,0.02,0
4046.0,1.61,1.46,0.02,0
4048.0,1.61,1.45,0.01,0
4050.0,1.76,1.45,0.02,0
4052.0,1.9,1.45,0.02,0
4055.0,1.9,1.45,0.02,0
4057.0,1.88,1.45,0.02,0
4059.0,1.9,1.45,0.02,0
4061.0,1.86,1.46,0.02,0
4063.0,1.85,1.46,0.02,0
4065.0,1.88,1.46,0.02,0
4066.0,1.91,1.46,0.02,0
4068.0,1.89,1.46,0.02,0
4070.0,1.8,1.45,0.02,0
4072.0,1.77,1.45,0.02,0
4074.0,1.75,1.45,0.03,0
4076.0,1.65,1.45,0.03,0
4078.0,1.71,1.46,0.02,0
4080.0,1.71,1.46,0.02,0
4082.0,1.67,1.46,0.02,0
4084.0,1.67,1.46,0.03,0
4086.0,1.59,1.46,0.04,0
4088.0,1.57,1.45,0.16,0
4090.0,1.67,1.45,0.18,0
4092.0,1.73,1.45,0.17,0
4094.0,1.73,1.45,0.22,0
4097.0,1.74,1.45,0.2,0
4099.0,1.75,1.46,0.03,0
4101.0,1.71,1.46,0.05,0
4103.0,1.72,1.46,0.24,0
4105.0,1.76,1.46,0.2,0
4107.0,1.77,1.46,0.13,0
4109.0,1.71,1.46,0.25,0
4110.0,1.71,1.45,0.33,0
4112.0,1.75,1.45,0.42,0
4114.0,1.75,1.45,0.28,0
4116.0,1.76,1.45,0.21,0
4118.0,1.67,1.45,0.15,0
4120.0,1.69,1.46,0.01,0
4122.0,1.66,1.46,0.01,0
4124.0,1.67,1.46,0.01,0
4126.0,1.65,1.46,0.01,0
4128.0,1.6,1.45,0.02,0
4130.0,1.6,1.45,0.01,0
4132.0,1.55,1.45,0.03,0
4134.0,1.53,1.45,0.01,0
4136.0,1.5,1.45,0.01,0
4139.0,1.47,1.46,0.01,0
4141.0,1.49,1.46,0.01,0
4143.0,1.49,1.46,0.01,0
4145.0,1.43,1.46,0.01,0
4147.0,1.37,1.46,0.01,0
4149.0,1.34,1.45,0.01,0
4151.0,1.33,1.45,0.01,0
4152.0,1.32,1.45,0.04,0
4154.0,1.07,1.45,0.21,0
4156.0,1.13,1.46,0.37,0
4158.0,1.13,1.46,0.55,0
4160.0,1.33,1.46,0.79,0
4162.0,1.32,1.46,0.82,0
4164.0,1.24,1.46,0.65,0
4166.0,1.22,1.46,0.51,0
4168.0,1.37,1.45,0.18,0
4170.0,1.47,1.45,0.14,0
4172.0,1.49,1.45,0.31,0
4174.0,1.57,1.45,0.42,0
4176.0,1.67,1.45,0.47,0
4178.0,1.73,1.46,0.49,0
4180.0,1.77,1.46,0.32,0
4183.0,1.8,1.46,0.3,0
4185.0,1.83,1.46,0.51,0
4187.0,1.85,1.46,0.68,0
4189.0,1.87,1.45,0.94,0
4191.0,1.93,1.45,0.95,0
4193.0,2.02,1.45,0.82,0
4194.0,2.03,1.45,0.82,0
4196.0,2.05,1.45,0.76,0
4198.0,2.25,1.46,0.51,0
4200.0,2.37,1.46,0.48,0
4202.0,2.28,1.46,0.86,0
4204.0,2.28,1.46,1.3,0
4206.0,2.39,1.46,1.48,0
4208.0,2.48,1.45,1.98,0
4210.0,2.54,1.45,1.95,0
4212.0,2.58,1.45,1.88,0
4214.0,2.55,1.45,1.99,0
4216.0,2.64,1.46,2.15,0
4218.0,2.82,1.46,2.09,0
4220.0,2.89,1.46,2.31,0
4222.0,2.87,1.47,2.51,0
4225.0,2.8,1.47,2.95,0
4227.0,2.74,1.46,3.27,0
4229.0,2.61,1.46,3.19,0
4231.0,2.8,1.46,3.15,0
4233.0,3.01,1.46,3.26,0
4235.0,3.02,1.46,3.26,0
4237.0,2.95,1.46,3.26,0
4238.0,2.74,1.47,3.26,0
4240.0,2.62,1.47,3.26,0
4242.0,2.72,1.47,3.26,0
4244.0,2.79,1.47,3.26,0
4246.0,2.98,1.47,3.27,0
4248.0,3.24,1.46,3.26,0
4250.0,3.3,0.0,3.24,0
4252.0,3.3,0.0,3.25,0
4254.0,3.3,0.0,3.24,0
4256.0,3.3,0.0,3.24,0
4258.0,3.3,0.0,3.25,0
4260.0,3.3,0.0,3.24,0
4262.0,3.3,0.0,3.25,0
4264.0,3.3,0.0,3.25,0
4267.0,3.3,0.0,3.25,0
4269.0,3.3,0.0,3.25,0
4271.0,3.3,0.0,3.25,0
4273.0,3.3,0.0,3.25,0
4275.0,3.3,0.0,3.24,0
4277.0,3.3,0.0,3.24,0
4279.0,3.3,0.0,2.49,0
4280.0,3.3,0.0,2.83,0
4282.0,3.23,0.0,2.75,0
4284.0,3.13,0.0,2.58,0
4286.0,2.99,0.0,2.16,0
4288.0,2.98,0.0,1.95,0
4290.0,3.15,0.0,1.69,0
4292.0,3.3,0.0,1.15,0
4294.0,3.3,0.0,0.91,0
4296.0,3.3,0.0,0.67,0
4298.0,3.24,0.0,0.55,0
4300.0,3.06,0.0,0.41,0
4302.0,2.79,0.0,0.0,0
4304.0,2.63,0.0,0.0,0
4306.0,2.37,0.0,0.0,0
4308.0,2.15,0.0,0.0,0
4311.0,2.12,0.0,0.0,0
4313.0,2.18,0.0,0.0,0
4315.0,2.2,0.0,0.0,0
4317.0,2.17,0.0,0.0,0
4319.0,2.08,0.0,0.0,0
4321.0,1.94,0.0,0.0,0
4322.0,1.65,0.0,0.0,0
4324.0,1.54,0.0,0.0,0
4326.0,1.48,0.0,0.0,0
4328.0,1.32,0.0,0.0,0
4330.0,1.26,0.0,0.0,0
4332.0,1.17,0.0,0.0,0
4334.0,1.05,0.0,0.0,0
4336.0,0.93,0.0,0.0,0
4338.0,0.95,0.0,0.0,0
4340.0,0.95,0.0,0.0,0
4342.0,0.89,0.0,0.0,0
4344.0,0.84,0.0,0.0,0
4346.0,0.84,0.0,0.0,0
4348.0,0.69,0.0,0.0,0
4350.0,0.69,0.0,0.0,0
4353.0,0.84,0.0,0.0,0
4355.0,0.77,0.0,0.0,0
4357.0,0.88,0.0,0.0,0
4359.0,0.86,0.0,0.0,0
4361.0,0.82,0.0,0.0,0
4363.0,0.84,0.0,0.0,0
4365.0,0.8,0.0,0.0,0
4366.0,0.57,0.0,0.0,0
4368.0,0.36,0.0,0.0,0
4370.0,0.31,0.0,0.0,0
4372.0,0.22,0.0,0.0,0
4374.0,0.02,0.0,0.0,0
4376.0,0.0,0.0,0.0,0
4378.0,0.0,0.0,0.88,0
4380.0,0.0,0.0,2.41,0
4382.0,0.0,0.0,3.24,0
4384.0,0.0,0.0,3.24,0
4386.0,0.0,0.0,3.24,0
4388.0,0.0,0.0,3.24,0
4390.0,0.0,0.0,3.24,0
4392.0,0.0,0.0,3.24,0
4395.0,0.0,0.0,3.25,0
4397.0,0.0,0.0,3.24,0
4399.0,0.0,0.0,3.24,0
4401.0,0.0,0.0,3.25,0
4403.0,0.03,0.0,3.24,0
4405.0,0.0,0.0,3.24,0
4407.0,0.11,0.0,3.25,0
4408.0,0.22,0.0,3.24,0
4410.0,0.22,0.0,3.24,0
4412.0,0.27,0.0,3.24,0
4414.0,0.42,0.0,3.24,0
4416.0,0.65,0.0,3.23,0
4418.0,0.86,0.0,3.25,0
4420.0,0.98,0.0,3.24,0
4422.0,1.15,0.0,3.24,0
4424.0,1.31,0.0,3.24,0
4426.0,1.22,0.0,3.25,0
4428.0,1.18,0.0,3.25,0
4430.0,1.05,0.0,3.25,0
4432.0,1.26,0.0,3.24,0
4434.0,1.5,0.0,3.24,0
4436.0,1.65,0.0,3.25,0
4439.0,1.62,0.0,3.25,0
4441.0,1.57,0.0,3.25,0
4443.0,1.69,0.0,3.25,0
4445.0,1.87,0.0,3.25,0
4447.0,2.18,0.0,3.24,0
4449.0,2.55,0.0,3.25,0
4451.0,2.73,0.0,3.25,0
4452.0,2.78,0.0,3.24,0
4454.0,2.74,0.0,2.99,0
4456.0,2.64,0.0,0.0,0
4458.0,2.61,0.0,0.0,0
4460.0,2.7,0.0,0.0,0
4462.0,3.22,0.0,0.0,0
4464.0,3.3,0.0,0.0,0
4466.0,3.3,0.0,0.0,0
4468.0,3.3,0.0,0.0,0
4470.0,3.3,0.01,0.0,0
4472.0,3.3,0.21,0.0,0
4474.0,3.3,0.43,0.0,0
4476.0,3.3,0.59,0.0,0
4478.0,3.3,0.74,0.0,0
4481.0,3.3,0.86,0.0,0
4483.0,3.3,0.87,0.0,0
4485.0,3.3,0.78,0.0,0
4487.0,3.3,0.84,0.0,0
4489.0,3.3,0.89,0.0,0
4491.0,3.3,0.92,0.0,0
4493.0,3.26,1.17,0.01,0
4494.0,2.82,1.55,0.02,0
4496.0,2.65,2.0,0.02,0
4498.0,2.32,2.33,0.03,0
4500.0,2.06,2.58,0.03,0
4502.0,1.79,2.6,0.04,0
4504.0,1.6,2.5,0.03,0
4506.0,1.4,2.39,0.03,0
4508.0,1.05,2.35,0.03,0
4510.0,0.95,2.37,0.14,0
4512.0,0.95,2.49,0.31,0
4514.0,0.29,2.7,0.38,0
4516.0,0.0,2.81,0.65,0
4518.0,0.0,3.0,0.72,0
4520.0,0.0,3.12,0.58,0
4523.0,0.0,3.15,0.61,0
4525.0,0.0,3.14,0.71,0
4527.0,0.0,3.2,0.91,0
4529.0,0.0,3.17,1.05,0
4531.0,0.0,3.19,1.09,0
4533.0,0.0,3.3,1.13,0
4535.0,0.0,3.3,1.21,0
4536.0,0.0,3.3,1.16,0
4538.0,0.0,3.3,1.04,0
4540.0,0.0,3.3,0.86,0
4542.0,0.0,3.3,0.74,0
4544.0,0.0,3.3,0.63,0
4546.0,0.0,3.3,0.53,0
4548.0,0.0,3.28,0.45,0
4550.0,0.0,3.22,0.33,0
4552.0,0.0,3.23,0.12,0
4554.0,0.0,3.3,0.05,0
4556.0,0.0,3.3,0.04,0
4558.0,0.0,3.3,0.05,0
4560.0,0.0,3.3,0.05,0
4562.0,0.0,2.89,0.04,0
4564.0,0.0,2.58,0.03,0
4567.0,0.0,2.54,0.04,0
4569.0,0.0,2.53,0.02,0
4571.0,0.0,2.59,0.03,0
4573.0,0.0,2.55,0.03,0
4575.0,0.0,2.74,0.03,0
4577.0,0.0,2.77,0.03,0
4579.0,0.0,2.86,0.04,0
4580.0,0.0,2.94,0.04,0
4582.0,0.0,2.81,0.03,0
4584.0,0.0,2.73,0.03,0
4586.0,0.0,2.84,0.04,0
4588.0,0.0,2.94,0.03,0
4590.0,0.0,2.57,0.03,0
4592.0,0.0,2.77,0.03,0
4594.0,0.0,3.28,0.04,0
4596.0,0.0,3.3,0.04,0
4598.0,0.0,3.3,0.04,0
4600.0,0.0,3.3,0.04,0
4602.0,0.0,3.3,0.04,0
4604.0,0.0,3.3,0.04,0
4606.0,0.0,3.3,0.25,0
4609.0,0.0,3.3,0.55,0
4611.0,0.0,3.3,0.61,0
4613.0,0.0,3.3,0.68,0
4615.0,0.0,3.3,0.78,0
4617.0,0.0,3.3,0.79,0
4619.0,0.0,3.3,0.96,0
4621.0,0.0,3.3,1.07,0
4622.0,0.0,3.3,1.13,0
4624.0,0.0,3.3,1.25,0
4626.0,0.0,3.25,1.35,0
4628.0,0.0,3.11,1.51,0
4630.0,0.0,3.07,1.53,0
4632.0,0.0,3.14,1.68,0
4634.0,0.0,3.3,1.8,0
4636.0,0.0,3.3,1.95,0
4638.0,0.0,3.3,1.93,0
4640.0,0.0,3.3,1.81,0
4642.0,0.0,3.26,1.75,0
4644.0,0.0,3.14,1.62,0
4646.0,0.0,3.04,1.6,0
4648.0,0.0,2.91,1.44,0
4651.0,0.0,2.89,1.29,0
4653.0,0.0,2.96,1.14,0
4655.0,0.0,3.07,0.78,0
4657.0,0.0,3.2,0.45,0
4659.0,0.0,3.3,0.35,0
4661.0,0.0,3.26,0.33,0
4663.0,0.0,3.21,0.25,0
4664.0,0.0,3.15,0.15,0
4666.0,0.0,3.09,0.09,0
4668.0,0.0,2.93,0.04,0
4670.0,0.0,2.84,0.13,0
4672.0,0.0,2.91,0.06,0
4674.0,0.0,3.01,0.04,0
4676.0,0.0,3.09,0.04,0
4678.0,0.0,3.2,0.04,0
4680.0,0.0,3.25,0.04,0
4682.0,0.0,3.11,0.03,0
4684.0,0.0,2.76,0.03,0
4686.0,0.0,2.58,0.03,0
4688.0,0.0,2.38,0.03,0
4690.0,0.0,2.29,0.02,0
4692.0,0.0,2.14,0.03,0
4695.0,0.0,2.18,0.02,0
4697.0,0.0,2.22,0.03,0
4699.0,0.0,2.45,0.04,0
4701.0,0.0,2.56,0.04,0
4703.0,0.0,2.5,0.04,0
4705.0,0.0,2.42,0.03,0
4707.0,0.0,2.22,0.03,0
4708.0,0.0,1.96,0.03,0
4710.0,0.0,1.93,0.04,0
4712.0,0.0,1.99,0.09,0
4714.0,0.0,2.08,0.03,0
4716.0,0.0,2.29,0.03,0
4718.0,0.0,2.38,0.04,0
4720.0,0.0,2.25,0.03,0
4722.0,0.0,1.99,0.03,0
4724.0,0.0,1.86,0.02,0
4726.0,0.0,1.74,0.02,0
4728.0,0.0,1.55,0.32,0
4730.0,0.0,1.51,0.35,0
4732.0,0.0,1.65,0.49,0
4734.0,0.0,1.77,0.86,0
4737.0,0.0,1.88,1.08,0
4739.0,0.0,1.94,1.21,0
4741.0,0.0,2.04,1.18,0
4743.0,0.0,2.04,1.23,0
4745.0,0.0,1.88,1.46,0
4747.0,0.0,1.74,1.76,0
4749.0,0.0,1.58,1.9,0
4750.0,0.0,1.54,1.99,0
4752.0,0.0,1.6,1.95,0
4754.0,0.0,1.72,1.75,0
4756.0,0.0,1.78,1.86,0
4758.0,0.0,1.79,1.92,0
4760.0,0.0,1.79,1.97,0
4762.0,0.0,1.65,2.02,0
4764.0,0.0,1.52,1.99,0
4766.0,0.0,1.51,1.75,0
4768.0,0.0,1.43,1.6,0
4770.0,0.0,1.25,1.47,0
4772.0,0.0,1.18,1.39,0
4774.0,0.0,1.12,1.37,0
4776.0,0.0,1.0,1.45,0
4779.0,0.0,0.86,1.5,0
4781.0,0.0,0.75,1.36,0
4783.0,0.0,0.7,1.28,0
4785.0,0.0,0.52,1.18,0
4787.0,0.0,0.1,1.08,0
4789.0,0.0,0.0,1.08,0
4791.0,0.09,0.0,1.21,0
4792.0,0.42,0.0,1.35,0
4794.0,0.76,0.0,1.35,0
4796.0,1.08,0.0,1.36,0
4798.0,1.39,0.12,1.29,0
4800.0,1.66,0.2,1.34,0
4802.0,1.92,0.23,1.38,0
4804.0,2.15,0.29,1.52,0
4806.0,2.37,0.3,1.61,0
4808.0,2.57,0.23,1.68,0
4810.0,2.75,0.22,1.82,0
4812.0,2.92,0.27,1.86,0
4814.0,3.07,0.44,1.94,0
4816.0,3.21,0.67,1.91,0
4818.0,3.3,0.83,1.82,0
4820.0,3.3,0.81,1.84,0
4823.0,3.3,0.73,1.78,0
4825.0,3.3,0.71,1.81,0
4827.0,3.3,0.77,1.88,0
4829.0,3.3,0.79,2.06,0
4831.0,3.3,0.95,2.03,0
4833.0,3.3,1.09,1.99,0
4835.0,3.3,1.24,1.91,0
4836.0,3.3,1.27,1.89,0
4838.0,3.3,1.35,2.0,0
4840.0,3.3,1.46,2.14,0
4842.0,3.3,1.46,2.09,0
4844.0,3.3,1.41,2.13,0
4846.0,3.3,1.43,2.08,0
4848.0,3.3,1.46,2.0,0
4850.0,3.3,1.52,1.95,0
4852.0,3.3,1.59,1.89,0
4854.0,3.3,1.85,1.98,0
4856.0,3.3,1.91,2.11,0
4858.0,3.3,1.96,1.84,0
4860.0,3.3,2.0,1.6,0
4862.0,3.3,1.98,1.34,0
4865.0,3.3,1.93,1.35,0
4867.0,3.3,1.91,1.63,0
4869.0,3.3,1.84,2.33,0
4871.0,3.3,1.88,2.32,0
4873.0,3.3,1.95,2.18,0
4875.0,3.3,2.12,1.78,0
4877.0,3.3,2.23,1.47,0
4878.0,3.3,2.21,1.34,0
4880.0,3.3,2.16,1.24,0
4882.0,3.3,2.14,1.43,0
4884.0,3.3,2.0,1.56,0
4886.0,3.3,1.92,1.69,0
4888.0,3.3,1.85,1.77,0
4890.0,3.3,1.89,1.99,0
4892.0,3.3,1.93,2.18,0
4894.0,3.3,2.02,2.14,0
4896.0,3.3,2.05,2.4,0
4898.0,3.3,2.14,2.55,0
4900.0,3.3,2.15,2.67,0
4902.0,3.3,2.1,2.72,0
4904.0,3.3,2.0,2.41,0
4907.0,3.3,1.94,2.17,0
4909.0,3.3,1.86,1.87,0
4911.0,3.3,1.84,1.86,0
4913.0,3.3,1.87,1.86,0
4915.0,3.3,1.98,1.74,0
4917.0,3.3,2.1,1.86,0
4919.0,3.3,2.26,1.84,0
4921.0,3.3,2.29,1.81,0
4922.0,3.3,2.27,2.03,0
4924.0,3.3,2.16,1.85,0
4926.0,3.3,2.07,1.74,0
4928.0,3.3,1.95,1.79,0
4930.0,3.3,1.96,1.71,0
4932.0,3.3,2.09,1.77,0
4934.0,3.3,2.19,1.68,0
4936.0,3.3,2.3,1.9,0
4938.0,3.3,2.42,2.15,0
4940.0,3.3,2.5,1.89,0
4942.0,3.3,2.45,1.99,0
4944.0,3.3,2.4,2.1,0
4946.0,3.3,2.28,2.06,0
4948.0,3.3,2.15,1.99,0
4951.0,3.3,2.15,1.72,0
4953.0,3.3,2.24,1.92,0
4955.0,3.3,2.38,2.11,0
4957.0,3.3,2.48,2.23,0
4959.0,3.3,2.61,2.32,0
4961.0,3.3,2.61,2.4,0
4963.0,3.3,2.54,2.37,0
4964.0,3.27,2.42,2.44,0
4966.0,3.24,2.35,2.37,0
4968.0,3.21,2.24,2.29,0
4970.0,3.17,2.17,2.13,0
4972.0,3.14,2.12,2.02,0
4974.0,3.11,2.13,2.02,0
4976.0,3.08,2.08,2.03,0
4978.0,3.05,1.99,2.15,0
4980.0,3.02,1.87,1.96,0
4982.0,2.99,1.77,1.83,0
4984.0,2.96,1.73,1.91,0
4986.0,2.93,1.73,1.88,0
4988.0,2.9,1.7,1.75,0
4990.0,2.88,1.76,1.9,0
4993.0,2.85,1.8,1.93,0
4995.0,2.83,1.85,1.86,0
4997.0,2.8,1.89,1.8,0
4999.0,2.77,1.99,1.59,0
5001.0,2.75,1.97,1.44,0
5003.0,2.73,1.91,1.36,0
5005.0,2.7,1.75,1.34,0
5006.0,2.68,1.71,1.38,0
5008.0,2.65,1.65,1.44,0
5010.0,2.63,1.73,1.54,0
5012.0,2.61,1.9,1.86,0
5014.0,2.58,2.03,2.01,0
5016.0,2.56,2.11,2.07,0
5018.0,2.54,2.23,2.06,0
5020.0,2.52,2.35,2.04,0
5022.0,2.5,2.31,1.97,0
5024.0,2.48,2.2,1.9,0
5026.0,2.46,2.12,1.78,0
5028.0,2.44,2.0,1.67,0
5030.0,2.42,1.89,1.62,0
5032.0,2.4,1.8,1.58,0
5035.0,2.38,1.8,1.61,0
5037.0,2.37,1.8,1.62,0
5039.0,2.35,1.93,1.57,0
5041.0,2.34,1.87,1.49,0
5043.0,2.32,1.65,1.42,0
5045.0,2.3,1.49,1.28,0
5047.0,2.28,1.32,1.3,0
5049.0,2.26,1.18,1.22,0
5050.0,2.25,1.21,1.21,0
5052.0,2.23,1.27,1.27,0
5054.0,2.22,1.37,1.3,0
5056.0,2.2,1.54,1.32,0
5058.0,2.19,1.68,1.3,0
5060.0,2.18,1.6,1.22,0
5062.0,2.16,1.38,1.36,0
5064.0,2.15,1.27,1.68,0
5066.0,2.14,1.25,1.83,0
5068.0,2.12,1.18,1.87,0
5070.0,2.11,1.23,1.79,0
5072.0,2.09,1.25,1.88,0
5074.0,2.08,1.3,1.91,0
5076.0,2.07,1.34,2.03,0
5079.0,2.06,1.39,2.04,0
5081.0,2.05,1.35,2.05,0
5083.0,2.04,1.32,1.89,0
5085.0,2.02,1.26,1.78,0
5087.0,2.01,1.19,1.59,0
5089.0,2.0,1.27,1.63,0
5091.0,1.99,1.31,1.61,0
5092.0,1.98,1.38,1.33,0
5094.0,1.96,1.52,1.2,0
5096.0,1.96,1.68,1.35,0
5098.0,1.95,1.77,1.46,0
5100.0,1.94,1.84,1.42,0
5102.0,1.93,1.87,1.48,0
5104.0,1.92,1.85,1.37,0
5106.0,1.91,1.93,1.49,0
5108.0,1.9,1.9,1.61,0
5110.0,1.89,1.95,1.59,0
5112.0,1.88,2.08,1.55,0
5114.0,1.87,2.23,1.57,0
5116.0,1.86,2.26,1.6,0
5118.0,1.86,2.37,1.74,0
5121.0,1.85,2.4,1.75,0
5123.0,1.84,2.31,1.73,0
5125.0,1.83,2.22,1.54,0
5127.0,1.83,2.22,1.31,0
5129.0,1.82,2.16,1.22,0
5131.0,1.81,2.12,1.01,0
5133.0,1.8,2.12,0.63,0
5134.0,1.8,2.14,0.22,0
5136.0,1.79,2.14,0.13,0
5138.0,1.78,2.17,0.05,0
5140.0,1.78,2.09,0.02,0
5142.0,1.77,2.01,0.01,0
5144.0,1.76,1.93,0.02,0
5146.0,1.76,1.87,0.04,0
5148.0,1.75,1.79,0.41,0
5150.0,1.74,1.76,0.69,0
5152.0,1.74,1.79,1.11,0
5154.0,1.73,1.97,1.49,0
5156.0,1.73,2.08,1.56,0
5158.0,1.73,2.13,1.54,0
5160.0,1.72,2.16,1.57,0
5163.0,1.71,2.1,1.74,0
5165.0,1.71,1.97,1.84,0
5167.0,1.7,1.85,1.92,0
5169.0,1.7,1.78,1.97,0
5171.0,1.69,1.83,1.92,0
5173.0,1.68,1.79,1.85,0
5175.0,1.68,1.87,1.9,0
5177.0,1.68,1.86,1.84,0
5178.0,1.67,1.95,1.83,0
5180.0,1.67,1.98,1.67,0
5182.0,1.67,1.9,1.64,0
5184.0,1.66,1.82,1.77,0
5186.0,1.66,1.76,1.82,0
5188.0,1.65,1.72,1.76,0
5190.0,1.65,1.78,1.76,0
5192.0,1.64,1.85,1.74,0
5194.0,1.64,1.93,1.79,0
5196.0,1.64,1.95,1.91,0
5198.0,1.63,1.95,1.91,0
5200.0,1.63,1.9,1.74,0
5202.0,1.63,1.92,1.55,0
5204.0,1.62,1.89,1.61,0
5207.0,1.62,1.8,1.69,0
5209.0,1.61,1.74,1.61,0
5211.0,1.61,1.68,1.45,0
5213.0,1.61,1.65,1.6,0
5215.0,1.61,1.74,1.69,0
5217.0,1.6,1.79,1.8,0
5219.0,1.6,1.86,1.89,0
5220.0,1.6,1.9,1.97,0
5222.0,1.6,1.91,1.96,0
5224.0,1.59,1.83,1.96,0
5226.0,1.59,1.81,2.09,0
5228.0,1.58,1.77,2.06,0
5230.0,1.58,1.84,2.07,0
5232.0,1.58,1.89,1.93,0
5234.0,1.58,2.04,1.83,0
5236.0,1.57,2.11,1.85,0
5238.0,1.57,2.25,1.84,0
5240.0,1.57,2.26,1.73,0
5242.0,1.57,2.24,1.74,0
5244.0,1.56,2.15,1.88,0
5246.0,1.56,2.05,1.93,0
5249.0,1.56,1.95,2.02,0
5251.0,1.55,1.94,1.96,0
5253.0,1.55,2.01,1.96,0
5255.0,1.55,2.12,2.05,0
5257.0,1.55,2.18,2.03,0
5259.0,1.55,2.26,2.01,0
5261.0,1.55,2.18,1.93,0
5262.0,1.55,2.02,1.87,0
5264.0,1.54,1.86,1.93,0
5266.0,1.54,1.78,1.81,0
5268.0,1.54,1.65,1.76,0
5270.0,1.54,1.61,1.8,0
5272.0,1.53,1.65,1.75,0
5274.0,1.53,1.74,1.65,0
5276.0,1.53,1.78,1.71,0
5278.0,1.53,1.84,1.78,0
5280.0,1.53,1.82,1.62,0
5282.0,1.53,1.73,1.71,0
5284.0,1.53,1.65,1.76,0
5286.0,1.52,1.67,1.65,0
5288.0,1.52,1.59,1.36,0
5291.0,1.52,1.58,1.44,0
5293.0,1.52,1.59,1.27,0
5295.0,1.52,1.65,1.14,0
5297.0,1.52,1.69,1.09,0
5299.0,1.52,1.76,1.4,0
5301.0,1.52,1.83,1.62,0
5303.0,1.51,1.88,1.72,0
5305.0,1.51,1.78,1.82,0
5306.0,1.51,1.75,1.78,0
5308.0,1.51,1.71,1.78,0
5310.0,1.5,1.75,1.77,0
5312.0,1.5,1.83,2.05,0
5314.0,1.5,1.92,2.17,0
5316.0,1.5,1.93,2.05,0
5318.0,1.5,1.97,2.24,0
5320.0,1.5,1.87,2.17,0
5322.0,1.5,1.76,1.99,0
5324.0,1.5,1.59,1.85,0
5326.0,1.5,1.43,1.86,0
5328.0,1.5,1.25,1.83,0
5330.0,1.49,1.15,1.82,0
5332.0,1.49,1.22,1.71,0
5335.0,1.49,1.34,1.57,0
5337.0,1.49,1.38,1.42,0
5339.0,1.49,1.36,1.03,0
5341.0,1.49,1.23,0.79,0
5343.0,1.49,1.07,1.06,0
5345.0,1.49,0.99,1.29,0
5347.0,1.49,0.96,1.67,0
5348.0,1.49,0.96,1.73,0
5350.0,1.49,1.05,1.83,0
5352.0,1.48,1.18,1.77,0
5354.0,1.48,1.31,1.85,0
5356.0,1.48,1.39,2.01,0
5358.0,1.48,1.53,2.13,0
5360.0,1.48,1.57,2.25,0
5362.0,1.48,1.57,2.19,0
5364.0,1.48,1.42,2.16,0
5366.0,1.48,1.39,1.86,0
5368.0,1.48,1.26,1.72,0
5370.0,1.48,1.3,1.56,0
5372.0,1.48,1.37,1.65,0
5374.0,1.48,1.57,1.73,0
5377.0,1.48,1.65,1.84,0
5379.0,1.48,1.79,1.88,0
5381.0,1.48,1.75,2.27,0
5383.0,1.48,1.73,2.29,0
5385.0,1.48,1.72,2.25,0
5387.0,1.47,1.75,2.24,0
5389.0,1.47,1.63,2.12,0
5391.0,1.47,1.64,2.12,0
5392.0,1.47,1.65,2.19,0
5394.0,1.47,1.82,2.46,0
5396.0,1.47,1.83,2.34,0
5398.0,1.47,1.81,2.08,0
5400.0,1.47,1.77,2.06,0
5402.0,1.47,1.76,2.06,0
5404.0,1.47,1.66,2.28,0
5406.0,1.47,1.66,2.25,0
5408.0,1.47,1.56,2.25,0
5410.0,1.47,1.47,1.92,0
5412.0,1.47,1.47,1.75,0
5414.0,1.47,1.58,1.89,0
5416.0,1.47,1.62,2.11,0
5419.0,1.47,1.69,1.9,0
5421.0,1.47,1.64,1.8,0
5423.0,1.47,1.58,1.85,0
5425.0,1.46,1.45,1.95,0
5427.0,1.46,1.41,1.96,0
5429.0,1.46,1.41,2.04,0
5431.0,1.46,1.45,1.69,0
5433.0,1.46,1.52,1.23,0
5434.0,1.46,1.58,1.32,0
5436.0,1.46,1.63,1.64,0
5438.0,1.46,1.65,1.89,0
5440.0,1.46,1.5,1.9,0
5442.0,1.46,1.4,2.18,0
5444.0,1.46,1.29,2.11,0
5446.0,1.46,1.25,1.9,0
5448.0,1.46,1.17,1.6,0
5450.0,1.46,1.18,1.15,0
5452.0,1.46,1.18,0.83,0
5454.0,1.46,1.33,0.43,0
5456.0,1.46,1.51,0.45,0
5458.0,1.46,1.63,0.66,0
5460.0,1.46,1.62,0.59,0
5463.0,1.46,1.63,0.45,0
5465.0,1.46,1.6,0.35,0
5467.0,1.46,1.65,0.41,0
5469.0,1.45,1.62,0.42,0
5471.0,1.45,1.65,0.68,0
5473.0,1.45,1.67,1.03,0
5475.0,1.45,1.7,1.32,0
5476.0,1.46,1.69,1.36,0
5478.0,1.46,1.69,1.52,0
5480.0,1.46,1.6,1.69,0
5482.0,1.46,1.51,1.89,0
5484.0,1.46,1.33,2.24,0
5486.0,1.45,1.16,2.37,0
5488.0,1.45,0.97,2.54,0
5490.0,1.45,0.85,2.38,0
5492.0,1.45,0.86,2.15,0
5494.0,1.45,0.92,1.86,0
5496.0,1.45,0.94,2.09,0
5498.0,1.45,0.92,2.39,0
5500.0,1.45,0.78,2.46,0
5502.0,1.45,0.57,2.61,0
5505.0,1.45,0.4,2.62,0
5507.0,1.45,0.25,2.49,0
5509.0,1.45,0.06,2.48,0
5511.0,1.45,0.0,2.42,0
5513.0,1.45,0.0,2.42,0
5515.0,1.45,0.0,2.43,0
5517.0,1.45,0.0,2.21,0
5519.0,1.45,0.05,2.01,0
5520.0,1.45,0.07,2.08,0
5522.0,1.45,0.07,2.12,0
5524.0,1.45,0.0,2.02,0
5526.0,1.45,0.19,2.04,0
5528.0,1.45,0.52,2.04,0
5530.0,1.46,0.73,2.02,0
5532.0,1.46,0.73,1.92,0
5534.0,1.47,0.84,1.88,0
5536.0,1.48,0.85,2.0,0
5538.0,1.54,1.01,2.1,0
5540.0,1.65,1.15,2.04,0
5542.0,1.75,1.35,1.93,0
5544.0,1.78,1.47,1.98,0
5547.0,1.85,1.68,1.9,0
5549.0,1.87,1.75,1.85,0
5551.0,1.91,1.8,1.72,0
5553.0,2.05,1.78,1.5,0
5555.0,2.16,1.92,1.57,0
5557.0,2.27,1.96,1.42,0
5559.0,2.36,1.95,1.23,0
5561.0,2.32,2.35,1.25,0
5562.0,2.34,2.29,1.2,0
5564.0,2.39,2.15,1.11,0
5566.0,2.43,2.14,0.96,0
5568.0,2.43,2.03,0.99,0
5570.0,2.42,2.15,1.04,0
5572.0,2.4,2.41,1.05,0
5574.0,2.32,2.39,1.04,0
5576.0,2.35,2.36,1.04,0
5578.0,2.52,2.23,1.11,0
5580.0,2.49,2.2,1.24,0
5582.0,2.44,2.1,1.34,0
5584.0,2.3,1.89,1.49,0
5586.0,2.21,1.72,1.71,0
5588.0,2.21,1.56,1.68,0
5591.0,2.29,1.59,1.48,0
5593.0,2.33,1.77,1.43,0
5595.0,2.3,1.81,1.43,0
5597.0,2.3,1.86,1.18,0
5599.0,2.23,1.73,0.73,0
5601.0,2.15,1.56,0.39,0
5603.0,2.06,1.29,0.44,0
5604.0,2.03,1.21,0.37,0
5606.0,1.99,1.43,0.3,0
5608.0,1.97,1.53,0.55,0
5610.0,1.94,1.43,0.71,0
5612.0,1.95,1.51,0.9,0
5614.0,1.91,1.51,0.97,0
5616.0,1.85,1.29,0.93,0
5618.0,1.91,1.37,0.89,0
5620.0,1.88,1.22,0.91,0
5622.0,1.87,1.3,0.94,0
5624.0,1.87,1.0,0.93,0
5626.0,1.78,0.98,1.02,0
5628.0,1.73,1.21,0.95,0
5630.0,1.67,1.32,0.87,0
5633.0,1.58,1.39,0.72,0
5635.0,1.53,1.38,0.76,0
5637.0,1.47,1.2,0.72,0
5639.0,1.42,1.15,0.65,0
5641.0,1.39,1.18,0.73,0
5643.0,1.37,1.3,0.52,0
5645.0,1.31,1.3,0.32,0
5647.0,1.27,1.37,0.38,0
5648.0,1.33,1.39,0.36,0
5650.0,1.34,1.46,0.35,0
5652.0,1.3,1.57,0.33,0
5654.0,1.34,1.64,0.21,0
5656.0,1.45,1.67,0.03,0
5658.0,1.54,1.86,0.04,0
5660.0,1.66,1.88,0.04,0
5662.0,1.71,1.92,0.04,0
5664.0,1.59,1.95,0.04,0
5666.0,1.51,1.99,0.04,0
5668.0,1.49,1.96,0.04,0
5670.0,1.48,1.98,0.04,0
5672.0,1.45,2.01,0.04,0
5675.0,1.47,2.07,0.04,0
5677.0,1.51,2.15,0.05,0
5679.0,1.57,2.18,0.04,0
5681.0,1.67,2.14,0.04,0
5683.0,1.7,2.02,0.04,0
5685.0,1.65,1.94,0.04,0
5687.0,1.78,1.96,0.04,0
5689.0,1.73,1.93,0.06,0
5690.0,1.65,1.92,0.2,0
5692.0,1.54,1.93,0.17,0
5694.0,1.53,2.04,0.29,0
5696.0,1.57,2.1,0.55,0
5698.0,1.52,2.15,0.59,0
5700.0,1.4,2.05,0.59,0
5702.0,1.31,1.95,0.45,0
5704.0,1.19,1.74,0.32,0
5706.0,1.07,1.62,0.42,0
5708.0,0.97,1.43,0.4,0
5710.0,0.93,1.45,0.53,0
5712.0,0.94,1.48,0.59,0
5714.0,0.94,1.59,0.72,0
5716.0,0.93,1.61,1.13,0
5719.0,0.9,1.65,1.05,0
5721.0,0.93,1.51,1.1,0
5723.0,0.88,1.41,1.31,0
5725.0,0.82,1.33,1.44,0
5727.0,0.78,1.29,1.49,0
5729.0,0.74,1.27,1.46,0
5731.0,0.75,1.3,1.48,0
5732.0,0.84,1.3,1.6,0
5734.0,0.89,1.51,1.84,0
5736.0,0.91,1.63,1.91,0
5738.0,0.94,1.64,1.94,0
5740.0,1.01,1.55,2.02,0
5742.0,1.01,1.47,2.3,0
5744.0,0.98,1.4,2.53,0
5746.0,0.88,1.37,2.65,0
5748.0,0.94,1.38,2.6,0
5750.0,1.03,1.37,2.62,0
5752.0,1.03,1.38,2.48,0
5754.0,0.96,1.55,2.4,0
5756.0,0.94,1.68,2.23,0
5758.0,1.03,1.67,1.96,0
5761.0,1.15,1.58,1.77,0
5763.0,1.28,1.45,1.86,0
5765.0,1.26,1.28,1.88,0
5767.0,1.17,1.2,1.68,0
5769.0,1.11,1.18,1.59,0
5771.0,1.1,1.3,1.47,0
5773.0,1.09,1.42,1.54,0
5775.0,1.12,1.54,1.58,0
5776.0,1.26,1.6,1.69,0
5778.0,1.26,1.66,1.73,0
5780.0,1.25,1.58,1.73,0
5782.0,1.26,1.48,1.75,0
5784.0,1.25,1.37,1.71,0
5786.0,1.2,1.26,1.89,0
5788.0,1.18,1.23,1.99,0
5790.0,1.21,1.35,1.94,0
5792.0,1.19,1.38,1.96,0
5794.0,1.15,1.45,2.1,0
5796.0,1.19,1.49,2.2,0
5798.0,1.3,1.56,2.28,0
5800.0,1.38,1.45,2.25,0
5803.0,1.46,1.43,2.22,0
5805.0,1.46,1.35,2.23,0
5807.0,1.38,1.23,2.3,0
5809.0,1.27,1.12,2.54,0
5811.0,1.31,1.16,2.72,0
5813.0,1.32,1.19,2.75,0
5815.0,1.43,1.28,3.01,0
5817.0,1.47,1.35,3.04,0
5818.0,1.51,1.39,3.01,0
5820.0,1.56,1.28,2.96,0
5822.0,1.63,1.31,2.72,0
5824.0,1.69,1.28,2.71,0
5826.0,1.7,1.33,2.7,0
5828.0,1.69,1.37,2.55,0
5830.0,1.71,1.39,2.55,0
5832.0,1.8,1.4,2.38,0
5834.0,1.79,1.51,2.16,0
5836.0,1.79,1.56,2.17,0
5838.0,1.89,1.54,2.14,0
5840.0,1.97,1.45,1.95,0
5842.0,2.06,1.38,1.79,0
5844.0,2.09,1.23,1.67,0
5847.0,2.03,1.15,1.62,0
5849.0,1.97,1.14,1.63,0
5851.0,1.92,1.2,1.57,0
5853.0,1.97,1.28,1.55,0
5855.0,2.02,1.42,1.54,0
5857.0,2.04,1.47,1.59,0
5859.0,2.08,1.54,1.62,0
5860.0,2.11,1.39,1.61,0
5862.0,2.15,1.31,1.53,0
5864.0,2.09,1.28,1.46,0
5866.0,2.0,1.26,1.39,0
5868.0,1.93,1.18,1.32,0
5870.0,1.96,1.18,1.26,0
5872.0,1.96,1.23,1.22,0
5874.0,1.96,1.34,1.18,0
5876.0,1.99,1.35,1.07,0
5878.0,1.95,1.4,1.0,0
5880.0,1.81,1.31,0.93,0
5882.0,1.75,1.24,0.9,0
5884.0,1.78,1.12,0.89,0
5886.0,1.79,1.11,0.97,0
5889.0,1.74,1.11,1.02,0
5891.0,1.7,1.11,1.05,0
5893.0,1.7,1.12,1.06,0
5895.0,1.74,1.24,1.1,0
5897.0,1.77,1.34,1.08,0
5899.0,1.81,1.42,1.15,0
5901.0,1.75,1.35,1.1,0
5903.0,1.74,1.29,1.25,0
5904.0,1.68,1.16,1.39,0
5906.0,1.65,1.13,1.45,0
5908.0,1.63,1.1,1.54,0
5910.0,1.65,1.14,1.52,0
5912.0,1.78,1.19,1.46,0
5914.0,1.97,1.38,1.5,0
5916.0,1.97,1.45,1.55,0
5918.0,1.81,1.51,1.5,0
5920.0,1.74,1.42,1.5,0
5922.0,1.73,1.36,1.54,0
5924.0,1.7,1.2,0.63,0
5926.0,1.68,1.25,0.02,0
5928.0,1.64,1.2,0.02,0
5931.0,1.65,1.18,0.02,0
5933.0,1.64,1.26,0.02,0
5935.0,1.59,1.4,0.02,0
5937.0,1.53,1.41,0.02,0
5939.0,1.48,1.44,0.02,0
5941.0,1.4,1.4,0.02,0
5943.0,1.4,1.37,0.02,0
5945.0,1.41,1.23,0.02,0
5946.0,1.34,1.16,0.02,0
5948.0,1.3,1.11,0.03,0
5950.0,1.24,1.16,0.08,0
5952.0,1.18,1.2,0.28,0
5954.0,1.25,1.33,0.45,0
5956.0,1.26,1.37,0.58,0
5958.0,1.26,1.35,0.7,0
5960.0,1.31,1.31,0.79,0
5962.0,1.33,1.34,0.63,0
5964.0,1.27,1.29,0.6,0
5966.0,1.23,1.23,0.65,0
5968.0,1.19,1.14,0.66,0
5970.0,1.19,1.16,0.7,0
5972.0,1.19,1.23,0.68,0
5975.0,1.24,1.37,0.62,0
5977.0,1.31,1.42,0.23,0
5979.0,1.36,1.45,0.02,0
5981.0,1.38,1.35,0.01,0
5983.0,1.45,1.21,0.1,0
5985.0,1.42,1.03,0.28,0
5987.0,1.47,0.95,0.33,0
5988.0,1.4,0.88,0.51,0
5990.0,1.31,0.91,0.82,0
5992.0,1.42,0.99,1.02,0
5994.0,1.52,1.1,1.09,0
5996.0,1.59,1.22,1.08,0
5998.0,1.47,1.24,1.12,0
6000.0,1.39,1.16,1.19,0
6002.0,1.35,1.05,1.22,0
6004.0,1.32,0.96,1.35,0
6006.0,1.41,0.97,1.45,0
6008.0,1.51,0.88,1.59,0
6010.0,1.61,0.82,1.65,0
6012.0,1.78,0.75,1.78,0
6014.0,1.94,0.76,2.05,0
6017.0,1.97,0.75,2.17,0
6019.0,1.85,0.83,1.96,0
6021.0,1.78,0.85,2.0,0
6023.0,1.74,0.88,2.05,0
6025.0,1.68,0.77,2.05,0
6027.0,1.65,0.73,1.94,0
6029.0,1.67,0.68,1.85,0
6031.0,1.65,0.75,1.92,0
6032.0,1.66,0.85,1.95,0
6034.0,1.77,1.09,1.96,0
6036.0,1.92,1.24,1.95,0
6038.0,1.96,1.19,1.82,0
6040.0,1.9,1.08,1.75,0
6042.0,1.92,1.02,1.88,0
6044.0,1.86,1.01,1.97,0
6046.0,1.86,1.01,2.09,0
6048.0,1.96,1.05,2.15,0
6050.0,2.08,1.1,2.13,0
6052.0,2.2,1.15,2.09,0
6054.0,2.29,1.28,2.12,0
6056.0,2.39,1.42,2.1,0
6059.0,2.52,1.46,2.06,0
6061.0,2.7,1.38,2.17,0
6063.0,2.58,1.29,2.25,0
6065.0,2.49,1.19,2.28,0
6067.0,2.52,1.15,2.28,0
6069.0,2.45,1.15,2.28,0
6071.0,2.55,1.2,2.29,0
6073.0,2.59,1.28,2.23,0
6074.0,2.54,1.46,2.2,0
6076.0,2.44,1.55,2.22,0
6078.0,2.4,1.61,2.16,0
6080.0,2.34,1.53,2.1,0
6082.0,2.33,1.48,2.09,0
6084.0,2.34,1.42,2.16,0
6086.0,2.27,1.39,2.13,0
6088.0,2.27,1.38,2.2,0
6090.0,2.43,1.37,2.17,0
6092.0,2.47,1.37,2.2,0
6094.0,2.44,1.38,2.27,0
6096.0,2.39,1.43,2.29,0
6098.0,2.35,1.47,2.34,0
6100.0,2.34,1.39,2.29,0
6103.0,2.26,1.3,2.31,0
6105.0,2.29,1.17,2.28,0
6107.0,2.11,1.15,2.32,0
6109.0,2.01,1.18,2.29,0
6111.0,2.03,1.19,2.22,0
6113.0,2.0,1.13,2.25,0
6115.0,1.94,1.17,2.15,0
6117.0,1.88,1.22,2.16,0
6118.0,1.98,1.22,2.0,0
6120.0,2.01,1.14,1.94,0
6122.0,2.09,1.06,1.87,0
6124.0,2.13,1.01,1.94,0
6126.0,2.14,0.94,1.97,0
6128.0,1.98,0.81,1.98,0
6130.0,1.96,0.7,2.02,0
6132.0,2.03,0.68,2.07,0
6134.0,1.99,0.73,2.17,0
6136.0,2.03,0.75,2.14,0
6138.0,2.02,0.85,2.04,0
6140.0,1.93,0.82,2.01,0
6142.0,1.75,0.85,1.97,0
6145.0,1.66,0.84,1.95,0
6147.0,1.57,0.77,1.94,0
6149.0,1.42,0.72,1.78,0
6151.0,1.23,0.77,1.32,0
6153.0,1.1,0.72,1.1,0
6155.0,1.15,0.63,0.94,0
6157.0,1.28,0.6,0.91,0
6159.0,1.36,0.5,0.84,0
6160.0,1.3,0.31,0.83,0
6162.0,1.39,0.22,0.72,0
6164.0,1.4,0.12,0.69,0
6166.0,1.37,0.09,0.79,0
6168.0,1.29,0.0,0.74,0
6170.0,1.26,0.01,0.65,0
6172.0,1.36,0.0,0.73,0
6174.0,1.39,0.0,0.67,0
6176.0,1.3,0.0,0.73,0
6178.0,1.11,0.0,0.69,0
6180.0,1.08,0.0,0.57,0
6182.0,1.25,0.0,0.49,0
6184.0,1.33,0.0,0.45,0
6187.0,0.93,0.0,0.55,0
6189.0,0.56,0.0,0.51,0
6191.0,0.54,0.0,0.38,0
6193.0,0.57,0.0,0.2,0
6195.0,0.23,0.06,0.24,0
6197.0,0.0,0.12,0.25,0
6199.0,0.0,0.19,0.25,0
6201.0,0.04,0.24,0.24,0
6202.0,0.01,0.3,0.15,0
6204.0,0.0,0.27,0.08,0
6206.0,0.0,0.25,0.15,0
6208.0,0.08,0.3,0.19,0
6210.0,0.14,0.27,0.25,0
6212.0,0.15,0.41,0.45,0
6214.0,0.07,0.48,0.68,0
6216.0,0.03,0.63,0.9,0
6218.0,0.1,0.75,1.07,0
6220.0,0.16,0.84,1.17,0
6222.0,0.27,0.97,1.25,0
6224.0,0.32,0.92,1.32,0
6226.0,0.33,0.92,1.08,0
6228.0,0.25,0.78,0.77,0
6231.0,0.03,0.76,0.72,0
6233.0,0.0,0.79,0.61,0
6235.0,0.0,0.96,0.36,0
6237.0,0.04,0.94,0.15,0
6239.0,0.0,0.92,0.01,0
6241.0,0.0,0.93,0.0,0
6243.0,0.0,0.88,0.0,0
6245.0,0.0,0.84,0.01,0
6246.0,0.0,0.94,0.01,0
6248.0,0.0,1.05,0.01,0
6250.0,0.0,1.13,0.01,0
6252.0,0.0,1.13,0.02,0
6254.0,0.0,1.25,0.01,0
6256.0,0.03,1.42,0.02,0
6258.0,0.02,1.55,0.03,0
6260.0,0.05,1.55,0.03,0
6262.0,0.08,1.53,0.02,0
6264.0,0.23,1.51,0.03,0
6266.0,0.36,1.55,0.05,0
6268.0,0.4,1.59,0.15,0
6270.0,0.45,1.67,0.29,0
6273.0,0.45,1.78,0.35,0
6275.0,0.52,1.89,0.31,0
6277.0,0.56,1.94,0.3,0
6279.0,0.68,1.98,0.31,0
6281.0,0.78,1.95,0.34,0
6283.0,0.82,1.9,0.33,0
6285.0,0.85,1.79,0.33,0
6287.0,0.87,1.72,0.33,0
6288.0,0.79,1.63,0.38,0
6290.0,0.83,1.58,0.39,0
6292.0,0.83,1.52,0.4,0
6294.0,0.93,1.59,0.31,0
6296.0,0.96,1.57,0.26,0
6298.0,0.99,1.5,0.32,0
6300.0,0.81,1.32,0.4,0
6302.0,0.63,1.19,0.46,0
6304.0,0.48,1.08,0.41,0
6306.0,0.3,1.05,0.39,0
6308.0,0.05,1.12,0.41,0
6310.0,0.0,1.21,0.51,0
6312.0,0.0,1.19,0.59,0
6315.0,0.0,1.11,0.6,0
6317.0,0.0,1.07,0.59,0
6319.0,0.0,0.88,0.32,0
6321.0,0.0,0.74,0.36,0
6323.0,0.0,0.76,0.49,0
6325.0,0.0,0.76,0.56,0
6327.0,0.0,0.77,0.65,0
6329.0,0.0,0.81,0.74,0
6330.0,0.0,0.94,0.77,0
6332.0,0.0,1.06,0.86,0
6334.0,0.0,1.21,0.91,0
6336.0,0.0,1.23,0.75,0
6338.0,0.0,1.27,0.58,0
6340.0,0.0,1.3,0.6,0
6342.0,0.0,1.4,0.58,0
6344.0,0.0,1.33,0.46,0
6346.0,0.0,1.33,0.44,0
6348.0,0.0,1.42,0.51,0
6350.0,0.0,1.45,0.57,0
6352.0,0.0,1.56,0.55,0
6354.0,0.0,1.71,0.53,0
6356.0,0.0,1.77,0.5,0
6359.0,0.0,1.75,0.52,0
6361.0,0.0,1.68,0.49,0
6363.0,0.0,1.66,0.47,0
6365.0,0.0,1.63,0.48,0
6367.0,0.0,1.57,0.39,0
6369.0,0.0,1.51,0.31,0
6371.0,0.0,1.55,0.19,0
6373.0,0.0,1.63,0.03,0
6374.0,0.0,1.75,0.03,0
6376.0,0.0,1.88,0.04,0
6378.0,0.03,1.93,0.04,0
6380.0,0.17,1.89,0.04,0
6382.0,0.28,1.86,0.04,0
6384.0,0.53,1.81,0.04,0
6386.0,0.81,1.9,0.04,0
6388.0,1.02,1.94,0.04,0
6390.0,1.09,2.03,0.04,0
6392.0,1.24,2.12,0.05,0
6394.0,1.45,2.14,0.04,0
6396.0,1.61,2.22,0.05,0
6398.0,1.69,2.22,0.05,0
6401.0,1.72,2.17,0.05,0
6403.0,1.73,2.11,0.04,0
6405.0,1.89,2.0,0.04,0
6407.0,1.83,1.86,0.04,0
6409.0,1.67,1.72,0.03,0
6411.0,1.75,1.67,0.03,0
6413.0,1.46,1.65,0.03,0
6415.0,1.22,1.69,0.03,0
6416.0,0.85,1.68,0.03,0
6418.0,0.68,1.63,0.02,0
6420.0,0.35,1.52,0.03,0
6422.0,0.11,1.6,0.03,0
6424.0,0.0,1.59,0.03,0
6426.0,0.0,1.61,0.03,0
6428.0,0.0,1.61,0.03,0
6430.0,0.0,1.59,0.03,0
6432.0,0.0,1.6,0.03,0
6434.0,0.0,1.63,0.03,0
6436.0,0.0,1.65,0.04,0
6438.0,0.0,1.67,0.03,0
6440.0,0.0,1.57,0.03,0
6443.0,0.0,1.5,0.03,0
6445.0,0.0,1.5,0.03,0
6447.0,0.0,1.47,0.03,0
6449.0,0.0,1.41,0.03,0
6451.0,0.0,1.41,0.03,0
6453.0,0.0,1.41,0.03,0
6455.0,0.0,1.52,0.03,0
6457.0,0.0,1.48,0.03,0
6458.0,0.0,1.52,0.03,0
6460.0,0.06,1.48,0.02,0
6462.0,0.26,1.4,0.02,0
6464.0,0.45,1.27,0.01,0
6466.0,0.64,1.13,0.01,0
6468.0,0.81,0.95,0.01,0
6470.0,0.97,0.84,0.01,0
6472.0,1.12,0.84,0.01,0
6474.0,1.26,0.88,0.01,0
6476.0,1.38,0.95,0.01,0
6478.0,1.5,1.01,0.01,0
6480.0,1.61,0.92,0.0,0
6482.0,1.71,0.8,0.0,0
6484.0,1.79,0.68,0.0,0
6487.0,1.87,0.52,0.0,0
6489.0,1.95,0.46,0.0,0
6491.0,2.02,0.46,0.0,0
6493.0,2.08,0.49,0.0,0
6495.0,2.14,0.63,0.14,0
6497.0,2.19,0.77,0.52,0
6499.0,2.24,0.79,0.95,0
6501.0,2.28,0.74,1.16,0
6502.0,2.31,0.72,1.29,0
6504.0,2.35,0.68,1.53,0
6506.0,2.37,0.59,1.62,0
6508.0,2.4,0.41,1.68,0
6510.0,2.42,0.32,1.43,0
6512.0,2.44,0.42,0.0,0
6514.0,2.46,0.56,0.0,0
6516.0,2.47,0.67,0.0,0
6518.0,2.49,0.87,0.0,0
6520.0,2.5,0.85,0.0,0
6522.0,2.5,1.0,0.0,0
6524.0,2.51,1.22,0.01,0
6526.0,2.51,1.43,0.01,0
6529.0,2.51,1.49,0.01,0
6531.0,2.51,1.54,0.01,0
6533.0,2.51,1.25,0.01,0
6535.0,2.51,1.29,0.01,0
6537.0,2.51,1.46,0.01,0
6539.0,2.51,1.5,0.02,0
6541.0,2.5,1.43,0.01,0
6543.0,2.5,1.21,0.01,0
6544.0,2.49,1.29,0.01,0
6546.0,2.48,1.4,0.01,0
6548.0,2.47,1.74,0.02,0
6550.0,2.46,1.98,0.03,0
6552.0,2.45,2.41,0.04,0
6554.0,2.44,2.6,0.04,0
6556.0,2.43,2.79,0.04,0
6558.0,2.42,3.08,0.05,0
6560.0,2.41,3.07,0.05,0
6562.0,2.4,3.13,0.05,0
6564.0,2.39,3.3,0.06,0
6566.0,2.37,3.3,0.05,0
6568.0,2.36,3.3,0.05,0
6571.0,2.35,3.3,0.05,0
6573.0,2.33,3.3,0.05,0
6575.0,2.32,3.3,0.05,0
6577.0,2.31,3.3,0.05,0
6579.0,2.3,3.3,0.05,0
6581.0,2.29,3.3,0.05,0
6583.0,2.27,3.3,0.05,0
6585.0,2.26,3.3,0.05,0
6586.0,2.25,3.3,0.06,0
6588.0,2.23,3.3,0.06,0
6590.0,2.22,3.3,0.06,0
6592.0,2.21,3.3,0.08,0
6594.0,2.19,3.3,0.08,0
6596.0,2.18,3.3,0.07,0
6598.0,2.17,3.3,0.06,0
6600.0,2.16,3.3,0.06,0
6602.0,2.15,3.3,0.06,0
6604.0,2.13,3.3,0.07,0
6606.0,2.12,3.3,0.07,0
6608.0,2.11,3.3,0.07,0
6610.0,2.09,3.3,0.06,0
6612.0,2.08,3.3,0.07,0
6615.0,2.07,3.3,0.07,0
6617.0,2.06,3.3,0.07,0
6619.0,2.05,3.3,0.06,0
6621.0,2.04,3.3,0.07,0
6623.0,2.03,3.3,0.07,0
6625.0,2.02,3.3,0.06,0
6627.0,2.01,3.3,0.09,0
6629.0,1.99,3.3,0.09,0
6630.0,1.98,3.3,0.26,0
6632.0,1.97,3.3,0.75,0
6634.0,1.96,3.3,1.54,0
6636.0,1.95,3.3,1.94,0
6638.0,1.95,3.3,2.0,0
6640.0,1.94,3.3,2.23,0
6642.0,1.93,3.3,2.7,0
6644.0,1.92,3.3,3.3,0
6646.0,1.91,3.3,3.3,0
6648.0,1.9,3.3,3.3,0
6650.0,1.89,3.3,3.3,0
6652.0,1.88,3.3,3.3,0
6654.0,1.87,3.3,3.3,0
6657.0,1.86,3.3,3.3,0
6659.0,1.86,3.3,3.3,0
6661.0,1.85,3.3,3.3,0
6663.0,1.84,3.3,3.3,0
6665.0,1.83,3.3,3.3,0
6667.0,1.82,3.3,3.3,0
6669.0,1.81,3.3,3.3,0
6671.0,1.81,3.3,3.3,0
6672.0,1.8,3.3,3.3,0
6674.0,1.79,3.3,3.3,0
6676.0,1.79,3.3,3.3,0
6678.0,1.78,3.3,3.3,0
6680.0,1.78,3.3,3.3,0
6682.0,1.77,3.3,3.3,0
6684.0,1.76,3.3,3.3,0
6686.0,1.75,3.3,3.3,0
6688.0,1.75,3.3,3.3,0
6690.0,1.74,3.3,3.3,0
6692.0,1.73,3.3,3.3,0
6694.0,1.73,3.3,3.3,0
6696.0,1.73,3.3,3.3,0
6699.0,1.72,3.3,3.3,0
6701.0,1.72,3.3,3.3,0
6703.0,1.71,3.3,3.3,0
6705.0,1.7,3.3,3.3,0
6707.0,1.7,3.3,3.3,0
6709.0,1.69,3.3,3.3,0
6711.0,1.68,3.3,3.3,0
6713.0,1.68,3.3,3.3,0
6714.0,1.67,3.3,3.3,0
6716.0,1.67,3.3,3.3,0
6718.0,1.67,3.3,3.3,0
6720.0,1.66,3.3,3.3,0
6722.0,1.66,3.3,3.3,0
6724.0,1.65,3.3,3.3,0
6726.0,1.65,3.3,3.3,0
6728.0,1.64,3.3,3.3,0
6730.0,1.64,3.3,3.3,0
6732.0,1.63,3.3,3.3,0
6734.0,1.63,3.3,3.3,0
6736.0,1.63,3.3,3.3,0
6738.0,1.63,3.3,3.3,0
6740.0,1.62,3.3,3.3,0
6743.0,1.62,3.3,3.3,0
6745.0,1.61,3.3,3.3,0
6747.0,1.61,3.3,3.3,0
6749.0,1.6,3.3,3.3,0
6751.0,1.6,3.3,3.3,0
6753.0,1.6,3.3,3.3,0
6755.0,1.6,3.3,3.3,0
6757.0,1.59,3.3,3.3,0
6758.0,1.59,3.3,3.3,0
6760.0,1.59,3.3,3.3,0
6762.0,1.59,3.3,3.3,0
6764.0,1.58,3.3,3.26,0
6766.0,1.58,3.27,3.14,0
6768.0,1.57,3.17,2.79,0
6770.0,1.57,3.07,2.6,0
6772.0,1.57,3.11,2.4,0
6774.0,1.56,3.25,2.42,0
6776.0,1.56,3.3,2.37,0
6778.0,1.56,3.18,2.08,0
6780.0,1.56,2.98,1.82,0
6782.0,1.56,2.9,1.59,0
6785.0,1.55,2.84,1.4,0
6787.0,1.55,2.65,0.89,0
6789.0,1.55,2.68,0.83,0
6791.0,1.55,2.68,0.84,0
6793.0,1.54,2.96,0.52,0
6795.0,1.54,2.93,0.07,0
6797.0,1.54,3.25,0.07,0
6799.0,1.54,3.3,0.08,0
6800.0,1.54,3.3,0.08,0
6802.0,1.54,3.3,0.07,0
6804.0,1.53,3.3,0.06,0
6806.0,1.53,3.3,0.06,0
6808.0,1.53,3.3,0.06,0
6810.0,1.53,3.3,0.07,0
6812.0,1.52,3.3,0.07,0
6814.0,1.52,3.3,0.06,0
6816.0,1.52,3.3,0.06,0
6818.0,1.52,3.3,0.06,0
6820.0,1.52,3.3,0.06,0
6822.0,1.52,3.3,0.06,0
6824.0,1.52,3.3,0.06,0
6827.0,1.51,3.3,0.07,0
6829.0,1.51,3.3,0.06,0
6831.0,1.51,3.3,0.06,0
6833.0,1.51,3.3,0.06,0
6835.0,1.51,3.3,0.06,0
6837.0,1.51,3.3,0.06,0
6839.0,1.51,3.3,0.06,0
6841.0,1.51,3.3,0.06,0
6842.0,1.5,3.3,0.06,0
6844.0,1.5,3.3,0.07,0
6846.0,1.5,3.3,0.07,0
6848.0,1.5,3.3,0.07,0
6850.0,1.49,3.3,0.07,0
6852.0,1.49,3.3,0.06,0
6854.0,1.49,3.3,0.06,0
6856.0,1.49,3.3,0.06,0
6858.0,1.5,3.3,0.06,0
6860.0,1.49,3.3,0.06,0
6862.0,1.49,3.3,0.05,0
6864.0,1.49,3.3,0.06,0
6866.0,1.49,3.3,0.06,0
6868.0,1.49,3.3,0.06,0
6871.0,1.48,3.3,0.07,0
6873.0,1.48,3.3,0.07,0
6875.0,1.48,3.3,0.05,0
6877.0,1.48,3.3,0.06,0
6879.0,1.48,3.3,0.06,0
6881.0,1.48,3.3,0.07,0
6883.0,1.48,3.3,0.06,0
6885.0,1.48,3.3,0.16,0
6886.0,1.48,3.3,0.41,0
6888.0,1.48,3.3,0.72,0
6890.0,1.47,3.3,0.99,0
6892.0,1.47,3.3,1.29,0
6894.0,1.47,3.3,1.58,0
6896.0,1.48,3.3,1.91,0
6898.0,1.48,3.3,2.29,0
6900.0,1.48,3.3,2.66,0
6902.0,1.47,3.3,3.05,0
6904.0,1.47,3.3,3.3,0
6906.0,1.47,3.3,3.3,0
6908.0,1.47,3.3,3.3,0
6910.0,1.47,3.3,3.3,0
6913.0,1.47,3.3,3.3,0
6915.0,1.47,2.77,3.29,0
6917.0,1.47,2.14,3.27,0
6919.0,1.47,1.55,3.26,0
6921.0,1.47,0.68,3.25,0
6923.0,1.47,0.0,3.24,0
6925.0,1.47,0.0,3.23,0
6927.0,1.46,0.0,3.24,0
6928.0,1.46,0.0,3.24,0
6930.0,1.46,0.0,3.23,0
6932.0,1.46,0.0,3.24,0
6934.0,1.46,0.0,3.24,0
6936.0,1.46,0.0,3.24,0
6938.0,1.46,0.0,3.24,0
6940.0,1.46,0.0,3.22,0
6942.0,1.46,0.0,3.23,0
6944.0,1.46,0.0,3.22,0
6946.0,1.46,0.0,3.23,0
6948.0,1.46,0.0,3.23,0
6950.0,1.46,0.0,3.23,0
6952.0,1.46,0.0,3.23,0
6955.0,1.46,0.0,3.23,0
6957.0,1.46,0.0,3.22,0
6959.0,1.46,0.0,3.22,0
6961.0,1.46,0.0,3.23,0
6963.0,1.46,0.0,3.23,0
6965.0,1.46,0.0,3.23,0
6967.0,1.45,0.0,3.22,0
6969.0,1.45,0.0,3.23,0
6970.0,1.45,0.0,3.23,0
6972.0,1.45,0.0,3.23,0
6974.0,1.45,0.0,3.23,0
6976.0,1.46,0.0,3.23,0
6978.0,1.46,0.0,3.23,0
6980.0,1.46,0.0,3.23,0
6982.0,1.46,0.0,3.23,0
6984.0,1.45,0.0,3.23,0
6986.0,1.45,0.0,3.22,0
6988.0,1.45,0.0,3.23,0
6990.0,1.45,0.0,3.23,0
6992.0,1.45,0.0,3.23,0
6994.0,1.45,0.0,3.23,0
6996.0,1.45,0.0,3.23,0
6999.0,1.45,0.0,3.22,0
7001.0,1.45,0.0,3.22,0
7003.0,1.45,0.0,3.23,0
7005.0,1.45,0.0,3.23,0
7007.0,1.45,0.0,3.23,0
7009.0,1.45,0.0,3.22,0
7011.0,1.45,0.0,3.23,0
7013.0,1.45,0.0,3.23,0
7014.0,1.45,0.0,3.23,0
7016.0,1.45,0.0,3.23,0
7018.0,1.45,0.0,3.23,0
7020.0,1.45,0.0,3.23,0
7022.0,1.45,0.0,3.22,0
7024.0,1.45,0.0,3.22,0
7026.0,1.45,0.0,3.23,0
7028.0,1.45,0.0,3.23,0
7030.0,1.45,0.0,3.23,0
7032.0,1.45,0.0,3.23,0
7034.0,1.45,0.0,3.23,0
7036.0,1.45,0.0,3.23,0
7038.0,1.45,0.0,3.23,0
7041.0,1.45,0.0,3.23,0
7043.0,1.45,0.0,3.23,0
7045.0,1.45,0.0,3.23,0
7047.0,1.45,0.0,3.23,0
7049.0,1.45,0.0,3.23,0
7051.0,1.45,0.0,3.23,0
7053.0,1.45,0.0,3.23,0
7055.0,1.45,0.0,3.23,0
7056.0,1.45,0.0,3.23,0
7058.0,1.45,0.0,3.22,0
7060.0,1.45,0.0,3.24,0
7062.0,1.45,0.0,3.24,0
7064.0,1.45,0.0,3.23,0
7066.0,1.45,0.0,3.23,0
7068.0,1.45,0.0,3.23,0
7070.0,1.45,0.0,3.23,0
7072.0,1.45,0.0,3.23,0
7074.0,1.45,0.0,3.23,0
7076.0,1.45,0.0,3.24,0
7078.0,1.45,0.0,3.24,0
7080.0,1.45,0.0,3.24,0
7083.0,1.45,0.0,3.24,0
7085.0,1.45,0.0,3.24,0
7087.0,1.45,0.0,3.24,0
7089.0,1.44,0.0,3.23,0
7091.0,1.44,0.0,3.23,0
7093.0,1.45,0.0,3.23,0
7095.0,1.45,0.0,3.23,0
7097.0,1.45,0.0,3.23,0
7098.0,1.45,0.0,3.23,0
7100.0,1.45,0.0,3.23,0
7102.0,1.45,0.0,3.23,0
7104.0,1.45,0.0,3.23,0
7106.0,1.45,0.0,3.23,0
7108.0,1.44,0.0,3.23,0
7110.0,1.44,0.0,3.23,0
7112.0,1.44,0.0,1.83,0
7114.0,1.44,0.0,0.0,0
7116.0,1.45,0.0,0.0,0
7118.0,1.45,0.0,0.0,0
7120.0,1.45,0.0,0.0,0
7122.0,1.45,0.0,0.0,0
7124.0,1.45,0.0,0.0,0
7127.0,1.44,0.0,0.0,0
7129.0,1.44,0.0,0.0,0
7131.0,1.44,0.0,0.0,0
7133.0,1.44,0.0,0.0,0
7135.0,1.44,0.0,0.0,0
7137.0,1.44,0.0,0.0,0
7139.0,1.45,0.0,0.0,0
7141.0,1.45,0.0,0.0,0
7142.0,1.45,0.0,0.0,0
7144.0,1.44,0.0,0.0,0
7146.0,1.44,0.0,0.0,0
7148.0,1.44,0.0,0.0,0
7150.0,1.44,0.0,0.0,0
7152.0,1.44,0.0,0.0,0
7154.0,1.44,0.0,0.0,0
7156.0,1.44,0.0,0.0,0
7158.0,1.44,0.0,0.0,0
7160.0,1.45,0.0,0.0,0
7162.0,1.44,0.0,0.0,0
7164.0,1.44,0.0,0.0,0
7166.0,1.44,0.0,0.0,0
7169.0,1.44,0.0,0.0,0
7171.0,1.44,0.0,0.0,0
7173.0,1.44,0.0,0.0,0
7175.0,1.44,0.0,0.0,0
7177.0,1.44,0.0,0.0,0
7179.0,1.44,0.0,0.0,0
7181.0,1.44,0.0,0.0,0
7183.0,1.44,0.0,0.0,0
7184.0,1.44,0.0,0.0,0
7186.0,1.44,0.0,0.0,0
7188.0,1.44,0.0,0.0,0
7190.0,1.44,0.0,0.0,0
7192.0,1.44,0.0,0.0,0
7194.0,1.44,0.0,0.0,0
7196.0,1.44,0.0,0.0,0
7198.0,1.44,0.0,0.0,0
7200.0,1.44,0.0,0.0,0
7202.0,1.44,0.0,0.0,0
7204.0,1.44,0.0,0.0,0
7206.0,1.44,0.0,0.0,0
7208.0,1.44,0.0,0.0,0
7211.0,1.44,0.0,0.0,0
7213.0,1.44,0.0,0.0,0
7215.0,1.44,0.0,0.0,0
7217.0,1.44,0.0,0.0,0
7219.0,1.44,0.0,0.0,0
7221.0,1.44,0.0,0.0,0
7223.0,1.44,0.0,0.0,0
7225.0,1.44,0.0,0.0,0
7226.0,1.44,0.0,0.0,0
7228.0,1.44,0.0,0.0,0
7230.0,1.44,0.0,0.0,0
7232.0,1.44,0.0,0.0,0
7234.0,1.44,0.0,0.0,0
7236.0,1.44,0.0,0.0,0
7238.0,1.44,0.0,0.0,0
7240.0,1.44,0.0,0.0,0
7242.0,1.44,0.0,0.0,0
7244.0,1.44,0.0,0.0,0
7246.0,1.44,0.0,0.0,0
7248.0,1.44,0.0,0.0,0
7250.0,1.44,0.0,0.0,0
7252.0,1.44,0.0,0.0,0
7255.0,1.44,0.0,0.0,0
7257.0,1.44,0.0,0.0,0
7259.0,1.44,0.0,0.0,0
7261.0,1.44,0.0,0.0,0
7263.0,1.44,0.0,0.0,0
7265.0,1.44,0.0,0.0,0
7267.0,1.44,0.0,0.0,0
7269.0,1.44,0.0,0.0,0
7270.0,1.44,0.0,0.0,0
7272.0,1.44,0.19,0.0,0
7274.0,1.44,0.56,0.0,0
7276.0,1.44,1.1,0.01,0
7278.0,1.44,1.23,0.01,0
7280.0,1.44,1.15,0.01,0
7282.0,1.44,0.85,0.0,0
7284.0,1.44,0.63,0.0,0
7286.0,1.44,0.52,0.0,0
7288.0,1.44,0.64,0.0,0
7290.0,1.44,0.75,0.0,0
7292.0,1.44,1.0,0.01,0
7294.0,1.44,1.18,0.01,0
7297.0,1.44,1.08,0.01,0
7299.0,1.44,0.76,0.0,0
7301.0,1.44,0.45,0.0,0
7303.0,1.44,0.09,0.0,0
7305.0,1.44,0.0,0.0,0
7307.0,1.44,0.0,0.0,0
7309.0,1.44,0.0,0.0,0
7311.0,1.44,0.0,0.0,0
7312.0,1.44,0.0,0.0,0
7314.0,1.44,0.0,0.0,0
7316.0,1.44,0.06,0.0,0
7318.0,1.44,0.09,0.0,0
7320.0,1.44,0.04,0.0,0
7322.0,1.44,0.0,0.0,0
7324.0,1.44,0.12,0.0,0
7326.0,1.44,0.24,0.0,0
7328.0,1.44,0.48,0.0,0
7330.0,1.44,0.62,0.0,0
7332.0,1.44,0.73,0.0,0
7334.0,1.44,0.7,0.0,0
7336.0,1.44,0.74,0.0,0
7339.0,1.44,0.94,0.01,0
7341.0,1.44,0.83,0.0,0
7343.0,1.44,0.82,0.0,0
7345.0,1.44,1.2,0.01,0
7347.0,1.44,1.17,0.01,0
7349.0,1.44,1.3,0.01,0
7351.0,1.44,1.32,0.01,0
7353.0,1.44,1.39,0.02,0
7354.0,1.44,1.34,0.02,0
7356.0,1.44,1.35,0.01,0
7358.0,1.44,1.14,0.01,0
7360.0,1.44,1.21,0.01,0
7362.0,1.44,1.45,0.03,0
7364.0,1.44,1.67,0.03,0
7366.0,1.44,2.01,0.04,0
7368.0,1.44,2.12,0.05,0
7370.0,1.44,2.36,0.05,0
7372.0,1.44,2.77,0.06,0
7374.0,1.44,2.94,0.06,0
7376.0,1.44,3.0,0.07,0
7378.0,1.44,2.97,0.07,0
7380.0,1.44,3.02,0.07,0
7383.0,1.44,2.91,0.07,0
7385.0,1.44,2.89,0.06,0
7387.0,1.44,2.95,0.07,0
7389.0,1.44,3.2,0.07,0
7391.0,1.44,3.3,0.08,0
7393.0,1.44,3.3,0.08,0
7395.0,1.44,3.3,0.08,0
7397.0,1.44,3.3,0.09,0
7398.0,1.44,3.3,0.08,0
7400.0,1.44,3.3,0.09,0
7402.0,1.44,3.3,0.09,0
7404.0,1.44,3.3,0.09,0
7406.0,1.44,3.3,0.08,0
7408.0,1.44,3.3,0.08,0
7410.0,1.44,3.3,0.09,0
7412.0,1.44,3.3,0.09,0
7414.0,1.44,3.3,0.1,0
7416.0,1.44,3.3,0.09,0
7418.0,1.44,3.3,0.08,0
7420.0,1.44,3.3,0.09,0
7422.0,1.44,3.3,0.09,0
7425.0,1.44,3.3,0.09,0
7427.0,1.44,3.3,0.09,0
7429.0,1.44,3.26,0.09,0
7431.0,1.44,2.97,0.08,0
7433.0,1.44,2.91,0.08,0
7435.0,1.44,3.09,0.08,0
7437.0,1.44,3.3,0.09,0
7439.0,1.44,3.3,0.07,0
7440.0,1.44,3.3,0.09,0
7442.0,1.44,3.27,0.09,0
7444.0,1.44,3.3,0.08,0
7446.0,1.44,3.3,0.08,0
7448.0,1.44,3.3,0.09,0
7450.0,1.44,3.3,0.08,0
7452.0,1.44,3.3,0.08,0
7454.0,1.44,3.3,0.08,0
7456.0,1.44,3.3,0.07,0
7458.0,1.44,3.29,0.08,0
7460.0,1.44,3.27,0.08,0
7462.0,1.44,3.01,0.08,0
7464.0,1.44,2.69,0.07,0
7467.0,1.44,2.84,0.07,0
7469.0,1.44,3.17,0.08,0
7471.0,1.44,3.3,0.08,0
7473.0,1.44,3.3,0.08,0
7475.0,1.44,3.3,0.08,0
7477.0,1.44,3.3,0.08,0
7479.0,1.44,3.3,0.22,0
7481.0,1.44,3.04,0.61,0
7483.0,1.44,2.94,0.81,0
7484.0,1.44,3.1,1.03,0
7486.0,1.44,3.3,1.45,0
7488.0,1.44,3.3,1.63,0
7490.0,1.44,3.3,1.94,0
7492.0,1.44,3.3,2.64,0
7494.0,1.44,3.3,3.22,0
7496.0,1.44,3.3,3.3,0
7498.0,1.44,3.3,3.3,0
7500.0,1.44,3.3,3.3,0
7502.0,1.44,3.3,3.3,0
7504.0,1.44,3.3,3.3,0
7506.0,1.44,3.3,3.3,0
7508.0,1.44,3.3,3.3,0
7511.0,1.44,3.3,3.3,0
7513.0,1.44,3.3,3.3,0
7515.0,1.44,3.3,3.3,0
7517.0,1.44,3.3,3.3,0
7519.0,1.44,3.3,3.3,0
7521.0,1.44,3.3,3.3,0
7523.0,1.44,3.3,3.3,0
7525.0,1.44,3.3,3.3,0
7526.0,1.44,3.3,3.3,0
7528.0,1.44,3.3,3.3,0
7530.0,1.44,3.3,3.3,0
7532.0,1.44,3.3,3.3,0
7534.0,1.44,3.3,3.3,0
7536.0,1.44,3.3,3.3,0
7538.0,1.44,3.3,3.3,0
7540.0,1.44,3.3,3.3,0
7542.0,1.44,3.3,3.3,0
7544.0,1.44,3.3,3.3,0
7546.0,1.44,3.3,3.3,0
7548.0,1.44,3.3,3.3,0
7550.0,1.44,3.3,3.3,0
7553.0,1.44,3.3,3.3,0
7555.0,1.44,3.3,3.3,0
7557.0,1.44,3.3,3.3,0
7559.0,1.44,3.3,3.3,0
7561.0,1.44,3.3,3.3,0
7563.0,1.44,3.3,3.3,0
7565.0,1.44,3.3,3.3,0
7567.0,1.44,3.3,3.3,0
7568.0,1.44,3.3,3.3,0
7570.0,1.44,3.3,3.3,0
7572.0,1.44,3.3,3.3,0
7574.0,1.44,3.3,3.3,0
7576.0,1.44,3.3,3.3,0
7578.0,1.44,3.3,3.3,0
7580.0,1.44,3.3,3.3,0
7582.0,1.44,3.3,3.3,0
7584.0,1.44,3.3,3.3,0
7586.0,1.44,3.3,3.3,0
7588.0,1.44,3.3,3.3,0
7590.0,1.44,3.3,3.3,0
7592.0,1.44,3.3,3.3,0
7595.0,1.44,3.3,3.3,0
7597.0,1.44,3.3,3.3,0
7599.0,1.44,3.3,3.3,0
7601.0,1.44,3.3,3.3,0
7603.0,1.44,3.3,3.3,0
7605.0,1.44,3.3,3.3,0
7607.0,1.44,3.3,3.3,0
7609.0,1.44,3.3,3.3,0
7611.0,1.44,3.3,3.3,0
7612.0,1.44,3.3,3.3,0
7614.0,1.44,3.3,3.3,0
7616.0,1.44,3.3,3.3,0
7618.0,1.44,3.3,3.3,0
7620.0,1.44,3.3,3.3,0
7622.0,1.44,3.3,3.3,0
7624.0,1.44,3.3,3.3,0
7626.0,1.44,3.3,3.3,0
7628.0,1.44,3.3,3.3,0
7630.0,1.44,3.3,3.3,0
7632.0,1.44,3.3,3.3,0
7634.0,1.44,3.3,3.3,0
7636.0,1.44,3.3,3.3,0
7639.0,1.44,3.3,3.3,0
7641.0,1.44,3.3,3.3,0
7643.0,1.44,3.3,3.3,0
7645.0,1.44,3.3,3.3,0
7647.0,1.44,3.3,3.3,0
7649.0,1.44,3.3,3.3,0
7651.0,1.44,3.3,3.3,0
7653.0,1.44,3.3,3.3,0
7654.0,1.44,3.3,3.3,0
7656.0,1.44,3.3,3.3,0
7658.0,1.44,3.3,3.3,0
7660.0,1.44,3.3,3.3,0
7662.0,1.44,3.3,3.3,0
7664.0,1.44,3.3,3.3,0
7666.0,1.44,3.3,3.3,0
7668.0,1.44,3.3,3.3,0
7670.0,1.44,3.3,3.3,0
7672.0,1.44,3.3,3.3,0
7674.0,1.44,3.3,3.3,0
7676.0,1.44,3.3,3.3,0
7678.0,1.44,3.3,3.3,0
7681.0,1.44,3.3,3.3,0
7683.0,1.44,3.3,3.3,0
7685.0,1.44,3.3,3.3,0
7687.0,1.44,3.3,3.3,0
7689.0,1.44,3.3,3.3,0
7691.0,1.44,3.3,3.3,0
7693.0,1.44,3.3,3.3,0
7695.0,1.44,3.3,3.3,0
7696.0,1.44,3.3,3.3,0
7698.0,1.44,3.3,3.3,0
7700.0,1.44,3.3,3.3,0
7702.0,1.44,3.3,3.3,0
7704.0,1.44,3.3,3.3,0
7706.0,1.44,3.3,3.3,0
7708.0,1.44,3.3,3.3,0
7710.0,1.44,3.3,3.3,0
7712.0,1.44,3.3,3.3,0
7714.0,1.44,3.3,3.3,0
7716.0,1.44,3.3,3.3,0
7718.0,1.44,3.3,3.3,0
7720.0,1.44,3.3,3.3,0
7723.0,1.44,3.3,3.3,0
7725.0,1.44,3.3,3.3,0
7727.0,1.44,3.3,3.3,0
7729.0,1.44,3.3,3.3,0
7731.0,1.44,3.3,3.3,0
7733.0,1.44,3.3,3.3,0
7735.0,1.44,3.3,3.18,0
7737.0,1.44,3.3,3.08,0
7739.0,1.44,3.3,3.01,0
7740.0,1.44,3.3,2.91,0
7742.0,1.44,3.3,2.95,0
7744.0,1.44,3.3,3.03,0
7746.0,1.44,3.3,2.95,0
7748.0,1.44,3.3,2.87,0
7750.0,1.44,3.3,2.82,0
7752.0,1.44,3.3,2.78,0
7754.0,1.44,3.3,2.68,0
7756.0,1.44,3.3,2.65,0
7758.0,1.44,3.3,2.61,0
7760.0,1.44,3.3,2.57,0
7762.0,1.44,3.3,2.56,0
7764.0,1.44,3.3,2.58,0
7767.0,1.44,3.3,2.57,0
7769.0,1.44,3.3,2.53,0
7771.0,1.44,3.2,2.48,0
7773.0,1.44,2.68,2.43,0
7775.0,1.44,2.13,2.43,0
7777.0,1.44,1.6,2.4,0
7779.0,1.44,1.12,2.34,0
7781.0,1.44,0.68,2.32,0
7782.0,1.44,0.27,2.32,0
7784.0,1.44,0.0,2.32,0
7786.0,1.44,0.0,2.36,0
7788.0,1.44,0.0,2.45,0
7790.0,1.44,0.0,2.47,0
7792.0,1.44,0.0,2.52,0
7794.0,1.44,0.0,2.51,0
7796.0,1.44,0.0,2.48,0
7798.0,1.44,0.0,2.43,0
7800.0,1.44,0.0,2.38,0
7802.0,1.44,0.0,2.34,0
7804.0,1.44,0.0,2.32,0
7806.0,1.44,0.0,2.24,0
7809.0,1.44,0.0,2.19,0
7811.0,1.44,0.0,2.17,0
7813.0,1.44,0.0,2.16,0
7815.0,1.44,0.0,2.16,0
7817.0,1.44,0.0,2.17,0
7819.0,1.44,0.0,2.14,0
7821.0,1.44,0.0,2.14,0
7823.0,1.44,0.0,2.15,0
7825.0,1.44,0.0,2.15,0
7826.0,1.44,0.0,2.15,0
7828.0,1.44,0.0,2.15,0
7830.0,1.44,0.0,2.17,0
7832.0,1.44,0.0,2.2,0
7834.0,1.44,0.0,2.24,0
7836.0,1.44,0.0,2.19,0
7838.0,1.44,0.0,2.03,0
7840.0,1.44,0.0,1.93,0
7842.0,1.44,0.0,1.86,0
7844.0,1.44,0.0,1.86,0
7846.0,1.44,0.0,1.84,0
7848.0,1.44,0.0,1.86,0
7851.0,1.44,0.0,1.85,0
7853.0,1.44,0.0,1.84,0
7855.0,1.44,0.0,1.86,0
7857.0,1.44,0.0,1.89,0
7859.0,1.44,0.0,1.9,0
7861.0,1.44,0.0,1.9,0
7863.0,1.44,0.0,1.87,0
7865.0,1.44,0.0,1.88,0
7867.0,1.44,0.0,1.95,0
7868.0,1.43,0.0,2.03,0
7870.0,1.43,0.0,2.09,0
7872.0,1.44,0.0,2.12,0
7874.0,1.44,0.0,2.13,0
7876.0,1.44,0.0,2.14,0
7878.0,1.44,0.0,2.15,0
7880.0,1.44,0.0,2.19,0
7882.0,1.44,0.0,2.16,0
7884.0,1.44,0.0,2.15,0
7886.0,1.44,0.0,2.13,0
7888.0,1.44,0.0,2.04,0
7890.0,1.44,0.0,1.81,0
7892.0,1.44,0.0,1.33,0
7895.0,1.44,0.0,1.08,0
7897.0,1.44,0.0,1.07,0
7899.0,1.44,0.0,1.07,0
7901.0,1.44,0.0,1.09,0
7903.0,1.44,0.0,1.14,0
7905.0,1.44,0.0,1.2,0
7907.0,1.44,0.0,1.26,0
7909.0,1.44,0.0,1.32,0
7910.0,1.44,0.0,1.39,0
7912.0,1.44,0.0,1.43,0
7914.0,1.44,0.0,1.48,0
7916.0,1.44,0.0,1.54,0
7918.0,1.44,0.0,1.55,0
7920.0,1.44,0.0,1.58,0
7922.0,1.44,0.0,1.55,0
7924.0,1.44,0.0,1.5,0
7926.0,1.44,0.0,1.47,0
7928.0,1.44,0.0,1.48,0
7930.0,1.44,0.0,1.5,0
7932.0,1.44,0.0,1.48,0
7934.0,1.44,0.0,1.43,0
7937.0,1.44,0.0,1.46,0
7939.0,1.44,0.0,1.43,0
7941.0,1.44,0.0,1.45,0
7943.0,1.44,0.0,1.49,0
7945.0,1.44,0.0,1.55,0
7947.0,1.44,0.0,1.52,0
7949.0,1.44,0.0,1.42,0
7951.0,1.44,0.0,1.43,0
7953.0,1.44,0.0,1.53,0
7954.0,1.44,0.0,1.59,0
7956.0,1.44,0.0,1.62,0
7958.0,1.44,0.0,1.59,0
7960.0,1.44,0.0,1.65,0
7962.0,1.44,0.0,1.8,0
7964.0,1.44,0.0,1.89,0
7966.0,1.44,0.0,1.79,0
7968.0,1.44,0.0,1.51,0
7970.0,1.44,0.0,1.16,0
7972.0,1.44,0.0,1.05,0
7974.0,1.44,0.0,1.08,0
7976.0,1.44,0.0,0.83,0
7979.0,1.44,0.0,0.89,0
7981.0,1.44,0.0,1.09,0
7983.0,1.44,0.0,1.24,0
7985.0,1.44,0.0,1.22,0
7987.0,1.44,0.0,1.39,0
7989.0,1.44,0.0,1.56,0
7991.0,1.44,0.0,1.59,0
7993.0,1.44,0.0,1.7,0
7995.0,1.44,0.0,1.8,0
7996.0,1.44,0.0,1.97,0
7998.0,1.44,0.0,1.93,0
8000.0,1.44,0.0,1.95,0
8002.0,1.44,0.0,1.95,0
8004.0,1.44,0.0,2.05,0
8006.0,1.44,0.0,2.43,0
8008.0,1.44,0.0,2.85,0
8010.0,1.44,0.0,3.13,0
8012.0,1.44,0.0,3.22,0
8014.0,1.44,0.0,3.22,0
8016.0,1.44,0.0,3.23,0
8018.0,1.44,0.0,3.22,0
8020.0,1.44,0.0,3.22,0
8023.0,1.44,0.0,3.22,0
8025.0,1.44,0.0,3.22,0
8027.0,1.44,0.0,3.22,0
8029.0,1.44,0.0,3.22,0
8031.0,1.44,0.0,3.23,0
8033.0,1.44,0.0,3.22,0
8035.0,1.44,0.0,3.23,0
8037.0,1.44,0.0,3.23,0
8038.0,1.44,0.0,3.23,0
8040.0,1.44,0.0,3.23,0
8042.0,1.44,0.0,3.23,0
8044.0,1.44,0.0,3.22,0
8046.0,1.44,0.0,3.23,0
8048.0,1.44,0.0,3.22,0
8050.0,1.44,0.0,3.23,0
8052.0,1.44,0.0,3.23,0
8054.0,1.44,0.0,3.22,0
8056.0,1.44,0.0,3.23,0
8058.0,1.44,0.0,3.23,0
8060.0,1.44,0.0,3.23,0
8062.0,1.44,0.0,3.22,0
8065.0,1.44,0.0,3.23,0
8067.0,1.44,0.0,3.23,0
8069.0,1.44,0.0,3.23,0
8071.0,1.44,0.0,3.23,0
8073.0,1.44,0.0,3.23,0
8075.0,1.44,0.0,3.23,0
8077.0,1.44,0.0,3.23,0
8079.0,1.44,0.0,3.22,0
8081.0,1.44,0.0,3.23,0
8082.0,1.44,0.0,3.23,0
8084.0,1.44,0.0,3.24,0
8086.0,1.44,0.0,3.23,0
8088.0,1.44,0.0,3.24,0
8090.0,1.44,0.0,3.24,0
8092.0,1.44,0.0,3.24,0
8094.0,1.44,0.0,3.23,0
8096.0,1.44,0.0,3.22,0
8098.0,1.44,0.0,3.18,0
8100.0,1.44,0.0,3.07,0
8102.0,1.44,0.0,2.93,0
8104.0,1.44,0.0,2.67,0
8107.0,1.44,0.0,2.42,0
8109.0,1.44,0.0,2.32,0
8111.0,1.44,0.0,2.51,0
8113.0,1.44,0.0,2.5,0
8115.0,1.44,0.0,2.34,0
8117.0,1.44,0.0,2.18,0
8119.0,1.44,0.0,1.96,0
8121.0,1.44,0.0,1.84,0
8123.0,1.44,0.0,1.73,0
8124.0,1.44,0.0,1.53,0
8126.0,1.44,0.0,1.46,0
8128.0,1.44,0.0,1.41,0
8130.0,1.44,0.0,1.31,0
8132.0,1.44,0.0,1.22,0
8134.0,1.44,0.0,1.12,0
8136.0,1.44,0.0,1.09,0
8138.0,1.44,0.0,1.06,0
8140.0,1.44,0.0,1.01,0
8142.0,1.44,0.0,0.88,0
8144.0,1.44,0.0,0.78,0
8146.0,1.44,0.0,0.76,0
8148.0,1.44,0.0,0.7,0
8151.0,1.44,0.0,0.68,0
8153.0,1.44,0.0,0.64,0
8155.0,1.44,0.03,0.65,0
8157.0,1.44,0.06,0.68,0
8159.0,1.44,0.1,0.64,0
8161.0,1.44,0.14,0.59,0
8163.0,1.44,0.16,0.49,0
8165.0,1.44,0.19,0.47,0
8166.0,1.44,0.21,0.44,0
8168.0,1.44,0.23,0.39,0
8170.0,1.44,0.25,0.41,0
8172.0,1.44,0.27,0.43,0
8174.0,1.44,0.29,0.43,0
8176.0,1.44,0.33,0.44,0
8178.0,1.44,0.35,0.4,0
8180.0,1.44,0.38,0.35,0
8182.0,1.44,0.41,0.33,0
8184.0,1.44,0.43,0.35,0
8186.0,1.44,0.44,0.4,0
8188.0,1.44,0.45,0.46,0
8190.0,1.44,0.46,0.5,0
8193.0,1.44,0.48,0.49,0
8195.0,1.44,0.51,0.49,0
8197.0,1.44,0.53,0.49,0
8199.0,1.44,0.56,0.51,0
8201.0,1.44,0.58,0.45,0
8203.0,1.44,0.6,0.46,0
8205.0,1.44,0.62,0.57,0
8207.0,1.44,0.63,0.6,0
8209.0,1.43,0.64,0.62,0
8210.0,1.44,0.65,0.6,0
8212.0,1.44,0.66,0.6,0
8214.0,1.44,0.67,0.62,0
8216.0,1.44,0.7,0.63,0
8218.0,1.44,0.72,0.65,0
8220.0,1.44,0.74,0.64,0
8222.0,1.44,0.75,0.65,0
8224.0,1.44,0.77,0.65,0
8226.0,1.44,0.77,0.65,0
8228.0,1.44,0.78,0.68,0
8230.0,1.44,0.78,0.7,0
8232.0,1.44,0.8,0.72,0
8235.0,1.44,0.81,0.76,0
8237.0,1.44,0.83,0.78,0
8239.0,1.44,0.85,0.78,0
8241.0,1.44,0.87,0.78,0
8243.0,1.44,0.88,0.79,0
8245.0,1.44,0.89,0.78,0
8247.0,1.44,0.9,0.78,0
8249.0,1.44,0.9,0.78,0
8251.0,1.44,0.91,0.8,0
8252.0,1.44,0.91,0.78,0
8254.0,1.44,0.93,0.76,0
8256.0,1.44,0.95,0.77,0
8258.0,1.44,0.96,0.79,0
8260.0,1.44,0.98,0.79,0
8262.0,1.44,0.99,0.79,0
8264.0,1.44,1.0,0.77,0
8266.0,1.44,1.0,0.8,0
8268.0,1.44,1.0,0.82,0
8270.0,1.44,1.0,0.84,0
8272.0,1.44,1.01,0.85,0
8274.0,1.44,1.02,0.89,0
8276.0,1.44,1.04,0.92,0
8279.0,1.44,1.05,0.95,0
8281.0,1.44,1.07,0.95,0
8283.0,1.44,1.08,0.96,0
8285.0,1.44,1.08,0.96,0
8287.0,1.44,1.08,0.96,0
8289.0,1.44,1.08,0.98,0
8291.0,1.44,1.08,1.01,0
8293.0,1.44,1.09,0.99,0
8294.0,1.44,1.1,1.0,0
8296.0,1.44,1.11,1.03,0
8298.0,1.44,1.13,1.06,0
8300.0,1.44,1.14,1.09,0
8302.0,1.44,1.15,1.09,0
8304.0,1.44,1.15,1.09,0
8306.0,1.44,1.15,1.12,0
8308.0,1.44,1.15,1.14,0
8310.0,1.44,1.15,1.18,0
8312.0,1.44,1.15,1.21,0
8314.0,1.44,1.16,1.23,0
8316.0,1.44,1.17,1.22,0
8318.0,1.44,1.18,1.22,0
8321.0,1.44,1.19,1.23,0
8323.0,1.44,1.2,1.25,0
8325.0,1.44,1.2,1.28,0
8327.0,1.44,1.2,1.35,0
8329.0,1.44,1.2,1.37,0
8331.0,1.44,1.19,1.4,0
8333.0,1.44,1.2,1.42,0
8335.0,1.44,1.21,1.44,0
8337.0,1.44,1.22,1.48,0
8338.0,1.44,1.23,1.6,0
8340.0,1.44,1.24,1.6,0
8342.0,1.44,1.25,1.63,0
8344.0,1.44,1.25,1.63,0
8346.0,1.44,1.25,1.63,0
8348.0,1.44,1.24,1.72,0
8350.0,1.44,1.24,1.74,0
8352.0,1.44,1.24,1.75,0
8354.0,1.44,1.25,1.75,0
8356.0,1.44,1.26,1.74,0
8358.0,1.44,1.27,1.7,0
8360.0,1.44,1.28,1.64,0
8363.0,1.44,1.28,1.6,0
8365.0,1.44,1.28,1.58,0
8367.0,1.44,1.28,1.57,0
8369.0,1.43,1.27,1.56,0
8371.0,1.44,1.27,1.56,0
8373.0,1.44,1.27,1.55,0
8375.0,1.44,1.28,1.52,0
8377.0,1.44,1.29,1.47,0
8379.0,1.44,1.3,1.43,0
8380.0,1.44,1.31,1.42,0
8382.0,1.44,1.31,1.43,0
8384.0,1.44,1.31,1.44,0
8386.0,1.44,1.31,1.41,0
8388.0,1.44,1.3,1.36,0
8390.0,1.44,1.3,1.34,0
8392.0,1.44,1.3,1.29,0
8394.0,1.44,1.3,1.25,0
8396.0,1.44,1.31,1.23,0
8398.0,1.44,1.33,1.19,0
8400.0,1.44,1.34,1.18,0
8402.0,1.44,1.34,1.19,0
8404.0,1.44,1.34,1.2,0
8407.0,1.44,1.33,1.22,0
8409.0,1.44,1.33,1.23,0
8411.0,1.44,1.32,1.22,0
8413.0,1.44,1.32,1.19,0
8415.0,1.44,1.33,1.09,0
8417.0,1.44,1.34,0.99,0
8419.0,1.44,1.35,0.94,0
8421.0,1.44,1.35,0.95,0
8422.0,1.44,1.36,0.97,0
8424.0,1.44,1.36,1.07,0
8426.0,1.44,1.35,1.54,0
8428.0,1.44,1.35,1.63,0
8430.0,1.44,1.34,1.66,0
8432.0,1.44,1.34,1.67,0
8434.0,1.44,1.35,1.65,0
8436.0,1.44,1.35,1.62,0
8438.0,1.44,1.36,1.59,0
8440.0,1.44,1.37,1.59,0
8442.0,1.44,1.37,1.59,0
8444.0,1.44,1.37,1.56,0
8446.0,1.44,1.37,1.55,0
8449.0,1.43,1.36,1.56,0
8451.0,1.44,1.36,1.55,0
8453.0,1.44,1.36,1.55,0
8455.0,1.44,1.36,1.53,0
8457.0,1.44,1.37,1.5,0
8459.0,1.44,1.38,1.46,0
8461.0,1.44,1.39,1.44,0
8463.0,1.44,1.39,1.44,0
8465.0,1.44,1.39,1.41,0
8466.0,1.44,1.39,1.42,0
8468.0,1.44,1.38,1.42,0
8470.0,1.44,1.37,1.42,0
8472.0,1.44,1.37,1.42,0
8474.0,1.44,1.38,1.38,0
8476.0,1.44,1.39,1.36,0
8478.0,1.44,1.4,1.32,0
8480.0,1.44,1.4,1.28,0
8482.0,1.44,1.4,1.27,0
8484.0,1.44,1.4,1.24,0
8486.0,1.44,1.4,1.13,0
8488.0,1.44,1.39,1.13,0
8491.0,1.44,1.38,1.14,0
8493.0,1.44,1.38,1.14,0
8495.0,1.44,1.39,1.13,0
8497.0,1.44,1.4,1.11,0
8499.0,1.44,1.41,1.08,0
8501.0,1.44,1.41,1.08,0
8503.0,1.44,1.41,1.07,0
8505.0,1.44,1.41,1.04,0
8507.0,1.44,1.41,1.04,0
8508.0,1.44,1.4,1.1,0
8510.0,1.44,1.39,1.14,0
8512.0,1.44,1.39,1.16,0
8514.0,1.44,1.39,1.19,0
8516.0,1.44,1.4,1.19,0
8518.0,1.44,1.41,1.18,0
8520.0,1.44,1.42,1.17,0
8522.0,1.44,1.42,1.17,0
8524.0,1.44,1.41,1.16,0
8526.0,1.44,1.41,1.18,0
8528.0,1.44,1.4,1.19,0
8530.0,1.44,1.39,1.23,0
8532.0,1.44,1.39,1.27,0
8535.0,1.44,1.39,1.29,0
8537.0,1.44,1.4,1.32,0
8539.0,1.44,1.41,1.35,0
8541.0,1.44,1.42,1.35,0
8543.0,1.44,1.42,1.33,0
8545.0,1.44,1.41,1.35,0
8547.0,1.44,1.41,1.34,0
8549.0,1.44,1.4,1.35,0
8550.0,1.44,1.39,1.35,0
8552.0,1.44,1.39,1.36,0
8554.0,1.44,1.4,1.37,0
8556.0,1.44,1.4,1.36,0
8558.0,1.44,1.41,1.34,0
8560.0,1.44,1.42,1.32,0
8562.0,1.44,1.42,1.3,0
8564.0,1.44,1.42,1.32,0
8566.0,1.44,1.41,1.35,0
8568.0,1.44,1.4,1.41,0
8570.0,1.44,1.39,1.45,0
8572.0,1.44,1.39,1.48,0
8574.0,1.44,1.4,1.49,0
8577.0,1.44,1.41,1.5,0
8579.0,1.44,1.42,1.51,0
8581.0,1.44,1.42,1.51,0
8583.0,1.44,1.42,1.52,0
8585.0,1.44,1.42,1.54,0
8587.0,1.44,1.41,1.56,0
8589.0,1.44,1.4,1.59,0
8591.0,1.44,1.4,1.64,0
8593.0,1.44,1.4,1.65,0
8594.0,1.44,1.41,1.66,0
8596.0,1.44,1.41,1.67,0
8598.0,1.44,1.42,1.66,0
8600.0,1.44,1.42,1.65,0
8602.0,1.44,1.43,1.65,0
8604.0,1.44,1.43,1.64,0
8606.0,1.44,1.42,1.65,0
8608.0,1.44,1.41,1.67,0
8610.0,1.44,1.4,1.7,0
8612.0,1.44,1.4,1.7,0
8614.0,1.44,1.41,1.7,0
8616.0,1.44,1.42,1.68,0
8619.0,1.44,1.42,1.64,0
8621.0,1.44,1.43,1.58,0
8623.0,1.44,1.43,1.57,0
8625.0,1.44,1.43,1.57,0
8627.0,1.44,1.42,1.58,0
8629.0,1.44,1.41,1.61,0
8631.0,1.44,1.4,1.63,0
8633.0,1.44,1.4,1.6,0
8635.0,1.44,1.41,1.57,0
8636.0,1.44,1.42,1.54,0
8638.0,1.44,1.42,1.49,0
8640.0,1.44,1.43,1.47,0
8642.0,1.44,1.43,1.47,0
8644.0,1.44,1.43,1.45,0
8646.0,1.44,1.42,1.45,0
8648.0,1.44,1.41,1.44,0
8650.0,1.44,1.41,1.46,0
8652.0,1.44,1.4,1.46,0
8654.0,1.44,1.41,1.48,0
8656.0,1.44,1.42,1.5,0
8658.0,1.44,1.42,1.48,0
8660.0,1.44,1.43,1.48,0
8663.0,1.44,1.43,1.49,0
8665.0,1.44,1.43,1.49,0
8667.0,1.44,1.42,1.49,0
8669.0,1.44,1.41,1.5,0
8671.0,1.44,1.41,1.53,0
8673.0,1.44,1.41,1.55,0
8675.0,1.44,1.41,1.55,0
8677.0,1.44,1.42,1.52,0
8678.0,1.44,1.43,1.53,0
8680.0,1.44,1.43,1.53,0
8682.0,1.44,1.44,1.53,0
8684.0,1.44,1.43,1.53,0
8686.0,1.44,1.42,1.54,0
8688.0,1.44,1.41,1.55,0
8690.0,1.44,1.41,1.59,0
8692.0,1.44,1.41,1.64,0
8694.0,1.44,1.41,1.64,0
8696.0,1.44,1.42,1.65,0
8698.0,1.44,1.43,1.64,0
8700.0,1.44,1.43,1.64,0
8702.0,1.44,1.43,1.62,0
8705.0,1.44,1.43,1.63,0
8707.0,1.44,1.42,1.64,0
8709.0,1.44,1.41,1.66,0
8711.0,1.44,1.41,1.67,0
8713.0,1.44,1.41,1.67,0
8715.0,1.44,1.41,1.66,0
8717.0,1.44,1.42,1.64,0
8719.0,1.44,1.43,1.6,0
8721.0,1.44,1.43,1.59,0
8722.0,1.44,1.44,1.59,0
8724.0,1.44,1.43,1.62,0
8726.0,1.44,1.42,1.64,0
8728.0,1.44,1.42,1.66,0
8730.0,1.44,1.41,1.65,0
8732.0,1.44,1.41,1.64,0
8734.0,1.44,1.41,1.65,0
8736.0,1.44,1.42,1.65,0
8738.0,1.44,1.43,1.61,0
8740.0,1.44,1.43,1.51,0
8742.0,1.44,1.43,1.46,0
8744.0,1.44,1.43,1.47,0
8747.0,1.44,1.42,1.53,0
8749.0,1.44,1.41,1.57,0
8751.0,1.44,1.41,1.57,0
8753.0,1.44,1.41,1.58,0
8755.0,1.44,1.41,1.6,0
8757.0,1.44,1.42,1.58,0
8759.0,1.44,1.43,1.55,0
8761.0,1.44,1.43,1.53,0
8763.0,1.44,1.43,1.51,0
8764.0,1.44,1.43,1.52,0
8766.0,1.44,1.42,1.54,0
8768.0,1.44,1.42,1.55,0
8770.0,1.44,1.41,1.6,0
8772.0,1.44,1.41,1.61,0
8774.0,1.44,1.41,1.62,0
8776.0,1.44,1.42,1.58,0
8778.0,1.44,1.43,1.55,0
8780.0,1.44,1.44,1.53,0
8782.0,1.44,1.44,1.52,0
8784.0,1.44,1.43,1.51,0
8786.0,1.44,1.43,1.51,0
8788.0,1.44,1.42,1.51,0
8791.0,1.44,1.41,1.52,0
8793.0,1.44,1.41,1.52,0
8795.0,1.44,1.42,1.53,0
8797.0,1.44,1.43,1.51,0
8799.0,1.44,1.43,1.47,0
8801.0,1.44,1.44,1.45,0
8803.0,1.44,1.44,1.44,0
8805.0,1.44,1.44,1.44,0
8806.0,1.44,1.43,1.43,0
8808.0,1.44,1.42,1.45,0
8810.0,1.44,1.42,1.49,0
8812.0,1.44,1.41,1.5,0
8814.0,1.44,1.42,1.49,0
8816.0,1.44,1.43,1.46,0
8818.0,1.44,1.44,1.42,0
8820.0,1.44,1.44,1.38,0
8822.0,1.44,1.44,1.36,0
8824.0,1.44,1.44,1.35,0
8826.0,1.44,1.43,1.32,0
8828.0,1.44,1.42,1.32,0
8830.0,1.44,1.42,1.35,0
8833.0,1.44,1.42,1.35,0
8835.0,1.44,1.42,1.36,0
8837.0,1.44,1.43,1.39,0
8839.0,1.44,1.44,1.44,0
8841.0,1.44,1.45,1.46,0
8843.0,1.44,1.45,1.46,0
8845.0,1.44,1.44,1.49,0
8847.0,1.44,1.44,1.5,0
8849.0,1.43,1.43,1.49,0
8850.0,1.43,1.42,1.46,0
8852.0,1.44,1.42,1.47,0
8854.0,1.44,1.43,1.45,0
8856.0,1.44,1.44,1.44,0
8858.0,1.44,1.45,1.4,0
8860.0,1.44,1.45,1.34,0
8862.0,1.44,1.45,1.3,0
8864.0,1.44,1.45,1.24,0
8866.0,1.44,1.44,1.23,0
8868.0,1.44,1.44,1.2,0
8870.0,1.44,1.43,1.18,0
8872.0,1.44,1.43,1.15,0
8875.0,1.44,1.44,1.14,0
8877.0,1.44,1.45,1.15,0
8879.0,1.44,1.45,1.13,0
8881.0,1.44,1.46,1.15,0
8883.0,1.44,1.46,1.24,0
8885.0,1.44,1.45,1.3,0
8887.0,1.44,1.45,1.37,0
8889.0,1.44,1.44,1.43,0
8891.0,1.44,1.44,1.47,0
8892.0,1.44,1.43,1.55,0
8894.0,1.44,1.44,1.6,0
8896.0,1.44,1.45,1.59,0
8898.0,1.44,1.46,1.59,0
8900.0,1.44,1.46,1.58,0
8902.0,1.44,1.46,1.59,0
8904.0,1.44,1.46,1.59,0
8906.0,1.44,1.45,1.56,0
8908.0,1.44,1.44,1.55,0
8910.0,1.44,1.44,1.55,0
8912.0,1.44,1.44,1.55,0
8914.0,1.44,1.44,1.55,0
8916.0,1.44,1.45,1.54,0
8919.0,1.44,1.46,1.52,0
8921.0,1.44,1.46,1.5,0
8923.0,1.44,1.46,1.54,0
8925.0,1.44,1.46,1.55,0
8927.0,1.44,1.45,1.55,0
8929.0,1.44,1.45,1.57,0
8931.0,1.44,1.44,1.58,0
8933.0,1.44,1.44,1.57,0
8934.0,1.44,1.45,1.56,0
8936.0,1.44,1.45,1.55,0
8938.0,1.44,1.46,1.51,0
8940.0,1.44,1.46,1.5,0
8942.0,1.44,1.46,1.49,0
8944.0,1.44,1.46,1.47,0
8946.0,1.44,1.45,1.46,0
8948.0,1.44,1.45,1.49,0
8950.0,1.44,1.44,1.51,0
8952.0,1.44,1.44,1.5,0
8954.0,1.44,1.44,1.49,0
8956.0,1.44,1.45,1.45,0
8958.0,1.44,1.46,1.38,0
8961.0,1.44,1.46,1.34,0
8963.0,1.44,1.46,1.35,0
8965.0,1.44,1.46,1.37,0
8967.0,1.44,1.45,1.4,0
8969.0,1.44,1.44,1.38,0
8971.0,1.44,1.44,1.34,0
8973.0,1.44,1.44,1.33,0
8975.0,1.44,1.44,1.37,0
8977.0,1.44,1.45,1.45,0
8978.0,1.44,1.46,1.49,0
8980.0,1.44,1.46,1.48,0
8982.0,1.44,1.46,1.5,0
8984.0,1.44,1.46,1.53,0
8986.0,1.44,1.45,1.55,0
8988.0,1.44,1.44,1.56,0
8990.0,1.44,1.44,1.56,0
8992.0,1.44,1.44,1.57,0
8994.0,1.44,1.44,1.59,0
8996.0,1.44,1.45,1.6,0
8998.0,1.44,1.45,1.6,0
9000.0,1.44,1.46,1.63,0
9003.0,1.44,1.46,1.79,0
9005.0,1.44,1.46,1.75,0
9007.0,1.44,1.45,1.65,0
9009.0,1.44,1.44,1.56,0
9011.0,1.44,1.44,1.47,0
9013.0,1.44,1.44,1.46,0
9015.0,1.44,1.44,1.52,0
9017.0,1.44,1.45,1.54,0
9019.0,1.44,1.45,1.6,0
9020.0,1.44,1.46,1.62,0
9022.0,1.44,1.46,1.63,0
9024.0,1.44,1.45,1.63,0
9026.0,1.44,1.45,1.61,0
9028.0,1.43,1.44,1.64,0
9030.0,1.44,1.44,1.64,0
9032.0,1.44,1.44,1.63,0
9034.0,1.44,1.44,1.61,0
9036.0,1.44,1.45,1.57,0
9038.0,1.44,1.45,1.55,0
9040.0,1.44,1.46,1.52,0
9042.0,1.44,1.46,1.51,0
9044.0,1.44,1.45,1.5,0
9047.0,1.44,1.45,1.54,0
9049.0,1.44,1.44,1.57,0
9051.0,1.44,1.44,1.58,0
9053.0,1.44,1.44,1.57,0
9055.0,1.44,1.44,1.56,0
9057.0,1.44,1.45,1.56,0
9059.0,1.44,1.45,1.53,0
9061.0,1.44,1.46,1.51,0
9062.0,1.44,1.46,1.53,0
9064.0,1.44,1.45,1.52,0
9066.0,1.44,1.45,1.5,0
9068.0,1.44,1.44,1.49,0
9070.0,1.44,1.44,1.53,0
9072.0,1.44,1.44,1.52,0
9074.0,1.44,1.44,1.52,0
9076.0,1.44,1.45,1.49,0
9078.0,1.44,1.45,1.48,0
9080.0,1.44,1.46,1.46,0
9082.0,1.44,1.46,1.52,0
9084.0,1.44,1.45,1.56,0
9086.0,1.44,1.45,1.56,0
9089.0,1.44,1.44,1.62,0
9091.0,1.44,1.44,1.65,0
9093.0,1.44,1.43,1.78,0
9095.0,1.44,1.44,1.85,0
9097.0,1.44,1.45,1.84,0
9099.0,1.44,1.45,1.75,0
9101.0,1.44,1.46,1.65,0
9103.0,1.44,1.46,1.66,0
9105.0,1.44,1.45,1.86,0
9106.0,1.44,1.45,2.15,0
9108.0,1.44,1.44,2.34,0
9110.0,1.44,1.44,2.42,0
9112.0,1.44,1.44,2.4,0
9114.0,1.44,1.44,2.4,0
9116.0,1.44,1.45,2.42,0
9118.0,1.44,1.45,2.42,0
9120.0,1.44,1.46,2.41,0
9122.0,1.44,1.46,2.4,0
9124.0,1.44,1.45,2.35,0
9126.0,1.44,1.45,2.35,0
9128.0,1.43,1.44,2.31,0
9131.0,1.44,1.44,2.26,0
9133.0,1.44,1.44,2.2,0
9135.0,1.44,1.44,2.16,0
9137.0,1.44,1.45,2.12,0
9139.0,1.44,1.45,2.1,0
9141.0,1.44,1.46,2.07,0
9143.0,1.44,1.45,2.03,0
9145.0,1.44,1.41,1.97,0
9147.0,1.44,1.42,1.94,0
9148.0,1.43,1.44,1.94,0
9150.0,1.44,1.44,1.94,0
9152.0,1.44,1.44,1.92,0
9154.0,1.44,1.44,1.9,0
9156.0,1.44,1.45,1.87,0
9158.0,1.44,1.45,1.83,0
9160.0,1.44,1.46,1.76,0
9162.0,1.44,1.46,1.69,0
9164.0,1.44,1.45,1.67,0
9166.0,1.44,1.45,1.64,0
9168.0,1.44,1.44,1.6,0
9170.0,1.44,1.43,1.51,0
9172.0,1.44,1.43,1.42,0
9175.0,1.44,1.44,1.39,0
9177.0,1.44,1.45,1.34,0
9179.0,1.44,1.45,1.31,0
9181.0,1.44,1.45,1.28,0
9183.0,1.44,1.45,1.17,0
9185.0,1.44,1.45,1.13,0
9187.0,1.44,1.44,1.2,0
9189.0,1.44,1.43,1.24,0
9190.0,1.44,1.43,1.24,0
9192.0,1.44,1.43,1.25,0
9194.0,1.44,1.44,1.25,0
9196.0,1.44,1.44,1.25,0
9198.0,1.44,1.45,1.18,0
9200.0,1.44,1.45,1.14,0
9202.0,1.44,1.45,1.12,0
9204.0,1.44,1.45,1.13,0
9206.0,1.44,1.44,1.15,0
9208.0,1.44,1.43,1.25,0
9210.0,1.44,1.43,1.3,0
9212.0,1.44,1.43,1.39,0
9214.0,1.44,1.43,1.44,0
9217.0,1.44,1.44,1.45,0
9219.0,1.44,1.45,1.53,0
9221.0,1.44,1.45,1.62,0
9223.0,1.44,1.45,1.71,0
9225.0,1.44,1.45,1.75,0
9227.0,1.44,1.44,1.7,0
9229.0,1.44,1.43,1.78,0
9231.0,1.44,1.43,1.84,0
9233.0,1.44,1.43,1.85,0
9234.0,1.44,1.44,1.73,0
9236.0,1.44,1.45,1.73,0
9238.0,1.44,1.45,1.69,0
9240.0,1.44,1.45,1.74,0
9242.0,1.44,1.45,1.89,0
9244.0,1.44,1.45,2.09,0
9246.0,1.43,1.44,2.2,0
9248.0,1.43,1.43,2.21,0
9250.0,1.44,1.43,2.25,0
9252.0,1.44,1.43,2.21,0
9254.0,1.44,1.44,2.17,0
9256.0,1.44,1.45,2.1,0
9259.0,1.44,1.45,2.0,0
9261.0,1.44,1.45,2.03,0
9263.0,1.44,1.45,2.08,0
9265.0,1.44,1.45,2.02,0
9267.0,1.44,1.45,2.04,0
9269.0,1.43,1.44,1.95,0
9271.0,1.44,1.43,1.93,0
9273.0,1.44,1.43,1.9,0
9275.0,1.44,1.44,1.83,0
9276.0,1.44,1.45,1.77,0
9278.0,1.44,1.45,1.73,0
9280.0,1.44,1.46,1.65,0
9282.0,1.44,1.46,1.6,0
9284.0,1.44,1.45,1.36,0
9286.0,1.44,1.45,1.35,0
9288.0,1.44,1.44,1.45,0
9290.0,1.44,1.44,1.34,0
9292.0,1.44,1.44,1.24,0
9294.0,1.44,1.45,1.18,0
9296.0,1.44,1.46,1.55,0
9298.0,1.44,1.47,1.99,0
9300.0,1.44,1.47,2.45,0
9303.0,1.44,1.47,2.89,0
9305.0,1.44,1.47,3.03,0
9307.0,1.44,1.47,3.27,0
9309.0,1.44,1.46,3.26,0
9311.0,1.44,1.46,3.27,0
9313.0,1.44,1.47,3.25,0
9315.0,1.44,1.48,3.23,0
9317.0,1.44,1.49,2.57,0
9319.0,1.44,1.5,1.63,0
9320.0,1.44,1.5,1.13,0
9322.0,1.44,1.51,1.3,0
9324.0,1.44,1.51,1.81,0
9326.0,1.44,1.51,2.02,0
9328.0,1.44,1.5,2.34,0
9330.0,1.44,1.5,2.55,0
9332.0,1.44,1.5,2.19,0
9334.0,1.44,1.51,1.52,0
9336.0,1.44,1.53,0.2,0
9338.0,1.44,1.54,0.02,0
9340.0,1.44,1.55,0.02,0
9342.0,1.44,1.55,0.02,0
9345.0,1.44,1.55,0.02,0
9347.0,1.44,1.55,0.02,0
9349.0,1.43,1.55,0.02,0
9351.0,1.44,1.55,0.02,0
9353.0,1.44,1.55,0.02,0
9355.0,1.44,1.56,0.03,0
9357.0,1.44,1.57,0.02,0
9359.0,1.44,1.59,0.02,0
9361.0,1.44,1.6,0.02,0
9362.0,1.44,1.61,0.03,0
9364.0,1.44,1.6,0.02,0
9366.0,1.44,1.59,0.02,0
9368.0,1.43,1.58,0.02,0
9370.0,1.44,1.56,0.02,0
9372.0,1.44,1.56,0.02,0
9374.0,1.44,1.55,0.02,0
9376.0,1.44,1.55,0.02,0
9378.0,1.44,1.53,0.02,1
9380.0,1.44,1.5,0.02,1
9382.0,1.44,1.49,0.02,1
9384.0,1.44,1.48,0.02,1
9387.0,1.44,1.46,0.02,1
9389.0,1.44,1.44,0.02,1
9391.0,1.44,1.43,0.01,1
9393.0,1.44,1.44,0.02,1
9395.0,1.44,1.45,0.02,1
9397.0,1.44,1.45,0.02,1
9399.0,1.44,1.45,0.01,1
9401.0,1.44,1.43,0.01,1
9403.0,1.44,1.41,0.01,1
9404.0,1.44,1.4,0.01,1
9406.0,1.44,1.37,0.02,1
9408.0,1.44,1.35,0.01,1
9410.0,1.44,1.33,0.01,1
9412.0,1.44,1.32,0.01,1
9414.0,1.44,1.31,0.01,1
9416.0,1.44,1.3,0.01,1
9418.0,1.44,1.3,0.02,1
9420.0,1.44,1.31,0.01,1
9422.0,1.44,1.32,0.01,1
9424.0,1.44,1.34,0.01,1
9426.0,1.43,1.35,0.01,1
9428.0,1.44,1.36,0.01,1
9431.0,1.44,1.38,0.01,1
9433.0,1.44,1.42,0.02,1
9435.0,1.44,1.48,0.02,1
9437.0,1.44,1.54,0.02,1
9439.0,1.44,1.6,0.02,1
9441.0,1.44,1.67,0.02,1
9443.0,1.44,1.74,0.02,1
9445.0,1.44,1.81,0.02,1
9447.0,1.43,1.85,0.03,1
9448.0,1.43,1.89,0.02,1
9450.0,1.43,1.93,2.24,1
9452.0,1.44,1.98,3.28,1
9454.0,1.44,2.04,3.27,1
9456.0,1.44,2.09,3.28,1
9458.0,1.44,2.12,3.28,1
9460.0,1.44,2.16,3.23,1
9462.0,1.44,2.2,3.22,1
9464.0,1.43,2.26,3.1,1
9466.0,1.43,2.33,2.34,1
9468.0,1.43,2.4,1.51,1
9470.0,1.43,2.46,2.26,1
9473.0,1.43,2.54,2.04,1
9475.0,1.44,2.6,2.35,1
9477.0,1.44,2.67,2.89,1
9479.0,1.44,2.72,3.29,1
9481.0,1.44,2.78,3.02,1
9483.0,1.44,2.82,3.29,1
9485.0,1.43,2.86,3.29,1
9487.0,1.43,2.89,2.88,1
9489.0,1.43,2.91,2.88,1
9490.0,1.43,2.94,2.36,1
9492.0,1.44,2.97,1.08,1
9494.0,1.44,3.0,1.19,1
9496.0,1.44,3.02,1.26,1
9498.0,1.44,3.04,0.84,1
9500.0,1.44,3.05,0.05,1
9502.0,1.44,3.06,0.37,1
9504.0,1.44,3.06,0.19,1
9506.0,1.43,3.06,0.65,1
9508.0,1.43,3.05,0.38,1
9510.0,1.43,3.06,0.05,1
9512.0,1.44,3.06,0.35,1
9515.0,1.44,3.07,0.72,1
9517.0,1.44,3.07,0.05,1
9519.0,1.44,3.06,0.05,1
9521.0,1.44,3.06,0.06,1
9523.0,1.44,3.05,0.05,1
9525.0,1.43,3.04,0.05,1
9527.0,1.43,3.03,0.05,1
9529.0,1.43,3.01,0.05,1
9531.0,1.43,3.0,0.05,1
9532.0,1.44,2.99,0.05,1
9534.0,1.44,2.99,0.06,1
9536.0,1.44,2.98,0.05,1
9538.0,1.44,2.96,0.06,1
9540.0,1.44,2.94,0.05,1
9542.0,1.44,2.93,0.05,1
9544.0,1.43,2.91,0.04,1
9546.0,1.43,2.89,0.05,1
9548.0,1.43,2.87,0.05,1
9550.0,1.43,2.85,0.05,1
9552.0,1.44,2.84,0.05,1
9554.0,1.44,2.83,0.06,1
9556.0,1.44,2.81,0.05,1
9559.0,1.44,2.8,0.05,1
9561.0,1.44,2.78,0.05,1
9563.0,1.44,2.75,0.05,1
9565.0,1.43,2.73,0.06,1
9567.0,1.43,2.71,0.05,1
9569.0,1.43,2.69,0.04,1
9571.0,1.43,2.67,0.09,1
9573.0,1.44,2.65,0.45,1
9575.0,1.44,2.65,0.38,1
9576.0,1.44,2.63,1.05,1
9578.0,1.44,2.61,1.24,1
9580.0,1.44,2.59,1.61,1
9582.0,1.44,2.57,1.85,1
9584.0,1.43,2.55,1.83,1
9586.0,1.43,2.53,1.77,1
9588.0,1.43,2.51,1.6,1
9590.0,1.43,2.5,1.73,1
9592.0,1.44,2.48,1.74,1
9594.0,1.44,2.47,1.74,1
9596.0,1.44,2.45,1.89,1
9598.0,1.44,2.44,2.04,1
9601.0,1.44,2.42,1.86,1
9603.0,1.44,2.4,2.25,1
9605.0,1.43,2.38,2.38,1
9607.0,1.43,2.36,2.58,1
9609.0,1.43,2.34,2.78,1
9611.0,1.43,2.33,3.18,1
9613.0,1.44,2.32,3.28,1
9615.0,1.44,2.31,3.27,1
9617.0,1.44,2.29,3.28,1
9618.0,1.44,2.28,3.28,1
9620.0,1.44,2.26,3.28,1
9622.0,1.44,2.25,3.28,1
9624.0,1.43,2.23,3.28,1
9626.0,1.43,2.21,3.27,1
9628.0,1.43,2.2,3.27,1
9630.0,1.43,2.18,3.28,1
9632.0,1.44,2.17,3.28,1
9634.0,1.44,2.17,3.27,1
9636.0,1.44,2.16,3.27,1
9638.0,1.44,2.15,3.28,1
9640.0,1.44,2.13,3.28,1
9643.0,1.44,2.11,3.27,1
9645.0,1.44,2.1,3.27,1
9647.0,1.44,2.08,3.27,1
9649.0,1.43,2.07,3.27,1
9651.0,1.44,2.06,3.27,1
9653.0,1.44,2.05,3.27,1
9655.0,1.44,2.04,3.27,1
9657.0,1.44,2.03,3.27,1
9659.0,1.44,2.02,3.27,1
9660.0,1.44,2.01,3.27,1
9662.0,1.44,2.0,3.27,1
9664.0,1.44,1.98,3.27,1
9666.0,1.44,1.96,3.27,1
9668.0,1.44,1.96,3.27,1
9670.0,1.44,1.95,3.27,1
9672.0,1.44,1.94,3.27,1
9674.0,1.44,1.94,3.27,1
9676.0,1.44,1.93,3.27,1
9678.0,1.44,1.92,3.26,1
9680.0,1.44,1.91,3.26,1
9682.0,1.44,1.9,3.26,1
9684.0,1.44,1.88,3.25,1
9687.0,1.44,1.87,2.42,1
9689.0,1.44,1.86,1.32,1
9691.0,1.44,1.85,1.29,1
9693.0,1.44,1.85,2.45,1
9695.0,1.44,1.85,1.88,1
9697.0,1.44,1.84,2.07,1
9699.0,1.44,1.84,1.94,1
9701.0,1.44,1.82,1.48,1
9703.0,1.44,1.81,1.3,1
9704.0,1.44,1.8,1.46,1
9706.0,1.44,1.79,1.6,1
9708.0,1.44,1.78,1.73,1
9710.0,1.44,1.78,1.38,1
9712.0,1.44,1.77,1.4,1
9714.0,1.44,1.77,1.63,1
9716.0,1.44,1.77,1.78,1
9718.0,1.44,1.76,1.76,1
9720.0,1.44,1.75,1.62,1
9722.0,1.44,1.74,1.5,1
9724.0,1.44,1.73,1.33,1
9726.0,1.44,1.73,1.42,1
9729.0,1.44,1.72,1.58,1
9731.0,1.44,1.71,1.78,1
9733.0,1.44,1.71,1.97,1
9735.0,1.44,1.71,2.17,1
9737.0,1.44,1.71,2.12,1
9739.0,1.44,1.7,2.09,1
9741.0,1.44,1.69,2.0,1
9743.0,1.44,1.69,1.65,1
9745.0,1.44,1.68,1.28,1
9746.0,1.44,1.67,1.07,1
9748.0,1.44,1.66,0.8,1
9750.0,1.44,1.66,0.86,1
9752.0,1.44,1.66,1.01,1
9754.0,1.44,1.66,1.06,1
9756.0,1.44,1.66,0.94,1
9758.0,1.44,1.65,0.73,1
9760.0,1.44,1.65,0.92,1
9762.0,1.44,1.64,0.98,1
9764.0,1.44,1.64,0.9,1
9766.0,1.44,1.63,0.99,1
9768.0,1.44,1.62,0.85,1
9771.0,1.44,1.62,0.67,1
9773.0,1.44,1.62,0.7,1
9775.0,1.44,1.62,0.39,1
9777.0,1.44,1.62,0.36,1
9779.0,1.44,1.62,0.31,1
9781.0,1.44,1.61,0.16,1
9783.0,1.44,1.61,0.36,1
9785.0,1.44,1.6,0.3,1
9787.0,1.44,1.59,0.31,1
9788.0,1.44,1.59,0.25,1
9790.0,1.44,1.59,0.22,1
9792.0,1.44,1.59,0.21,1
9794.0,1.44,1.59,0.27,1
9796.0,1.44,1.59,0.33,1
9798.0,1.44,1.59,0.36,1
9800.0,1.44,1.58,0.38,1
9802.0,1.44,1.58,0.47,1
9804.0,1.44,1.57,0.54,1
9806.0,1.44,1.57,0.55,1
9808.0,1.44,1.56,0.5,1
9810.0,1.44,1.57,0.55,1
9812.0,1.44,1.56,0.52,1
9815.0,1.44,1.57,0.63,1
9817.0,1.44,1.57,0.66,1
9819.0,1.44,1.56,0.73,1
9821.0,1.44,1.56,0.9,1
9823.0,1.44,1.56,1.13,1
9825.0,1.44,1.55,1.17,1
9827.0,1.44,1.55,1.27,1
9829.0,1.44,1.55,1.68,1
9831.0,1.44,1.55,2.31,1
9832.0,1.44,1.55,2.47,1
9834.0,1.44,1.55,2.51,1
9836.0,1.44,1.55,2.54,1
9838.0,1.44,1.55,2.29,1
9840.0,1.44,1.54,2.49,1
9842.0,1.44,1.54,2.56,1
9844.0,1.44,1.53,1.87,1
9846.0,1.44,1.53,1.68,1
9848.0,1.44,1.52,1.86,1
9850.0,1.44,1.53,1.68,1
9852.0,1.44,1.53,1.61,1
9854.0,1.44,1.53,1.6,1
9857.0,1.44,1.53,1.15,1
9859.0,1.44,1.53,1.19,1
9861.0,1.44,1.52,1.4,1
9863.0,1.44,1.52,1.55,1
9865.0,1.44,1.51,1.64,1
9867.0,1.44,1.51,1.77,1
9869.0,1.44,1.51,2.0,1
9871.0,1.44,1.51,2.43,1
9873.0,1.44,1.51,2.85,1
9874.0,1.44,1.51,3.05,1
9876.0,1.44,1.51,3.1,1
9878.0,1.44,1.51,3.18,1
9880.0,1.44,1.51,3.27,1
9882.0,1.44,1.5,3.27,1
9884.0,1.44,1.5,3.26,1
9886.0,1.44,1.49,3.26,1
9888.0,1.44,1.49,3.26,1
9890.0,1.44,1.49,3.26,1
9892.0,1.44,1.49,3.19,1
9894.0,1.44,1.5,2.6,1
9896.0,1.44,1.5,2.31,1
9899.0,1.44,1.5,2.2,1
9901.0,1.44,1.49,2.24,1
9903.0,1.44,1.49,2.12,1
9905.0,1.44,1.48,2.13,1
9907.0,1.44,1.48,2.3,1
9909.0,1.44,1.48,2.41,1
9911.0,1.44,1.48,2.42,1
9913.0,1.44,1.48,2.45,1
9915.0,1.44,1.48,2.54,1
9916.0,1.44,1.49,2.54,1
9918.0,1.44,1.48,2.6,1
9920.0,1.44,1.48,2.57,1
9922.0,1.44,1.48,2.68,1
9924.0,1.44,1.47,2.95,1
9926.0,1.44,1.47,3.01,1
9928.0,1.44,1.47,3.15,1
9930.0,1.44,1.47,3.14,1
9932.0,1.44,1.47,3.06,1
9934.0,1.44,1.47,3.13,1
9936.0,1.44,1.48,3.26,1
9938.0,1.44,1.47,3.26,1
9940.0,1.44,1.47,3.26,1
9943.0,1.44,1.47,3.26,1
9945.0,1.44,1.46,3.26,1
9947.0,1.44,1.46,3.26,1
9949.0,1.44,1.45,3.26,1
9951.0,1.44,1.45,3.26,1
9953.0,1.44,1.46,3.26,1
9955.0,1.44,1.46,3.26,1
9957.0,1.44,1.46,3.26,1
9959.0,1.44,1.46,3.26,1
9960.0,1.44,1.46,3.26,1
9962.0,1.44,1.45,3.26,1
9964.0,1.44,1.45,3.25,1
9966.0,1.44,1.44,3.25,1
9968.0,1.44,1.44,3.19,1
9970.0,1.44,1.44,3.02,1
9972.0,1.44,1.45,2.96,1
9974.0,1.44,1.45,3.14,1
9976.0,1.44,1.45,3.23,1
9978.0,1.44,1.45,3.26,1
9980.0,1.44,1.45,3.25,1
9982.0,1.44,1.44,3.26,1
9985.0,1.44,1.44,3.26,1
9987.0,1.44,1.43,3.26,1
9989.0,1.44,1.43,3.26,1
9991.0,1.44,1.43,3.26,1
9993.0,1.44,1.44,3.26,1
9995.0,1.44,1.44,3.26,1
9997.0,1.44,1.44,3.25,1
9999.0,1.44,1.44,3.25,1
10001.0,1.44,1.44,3.25,1
10002.0,1.44,1.43,3.25,1
10004.0,1.44,1.43,3.25,1
10006.0,1.44,1.43,3.26,1
10008.0,1.44,1.42,3.26,1
10010.0,1.44,1.43,3.25,1
10012.0,1.44,1.43,3.25,1
10014.0,1.44,1.43,3.25,1
10016.0,1.44,1.43,3.25,1
10018.0,1.44,1.43,3.24,1
10020.0,1.44,1.42,3.19,1
10022.0,1.44,1.42,3.19,1
10024.0,1.44,1.42,3.08,1
10027.0,1.44,1.42,3.13,1
10029.0,1.44,1.41,3.07,1
10031.0,1.44,1.42,3.05,1
10033.0,1.44,1.42,3.03,1
10035.0,1.44,1.42,3.06,1
10037.0,1.44,1.42,2.99,1
10039.0,1.44,1.42,2.82,1
10041.0,1.44,1.42,2.76,1
10043.0,1.44,1.42,2.67,1
10045.0,1.44,1.41,2.45,1
10046.0,1.44,1.41,2.01,1
10048.0,1.44,1.4,1.74,1
10050.0,1.44,1.41,1.76,1
10052.0,1.44,1.41,1.68,1
10054.0,1.44,1.41,1.43,1
10056.0,1.44,1.41,1.33,1
10058.0,1.44,1.41,1.45,1
10060.0,1.44,1.41,1.18,1
10062.0,1.44,1.4,0.76,1
10064.0,1.44,1.4,0.49,1
10066.0,1.44,1.4,0.71,1
10068.0,1.44,1.39,0.92,1
10071.0,1.44,1.4,0.95,1
10073.0,1.44,1.4,1.06,1
10075.0,1.44,1.4,1.07,1
10077.0,1.44,1.4,1.15,1
10079.0,1.44,1.4,1.36,1
10081.0,1.44,1.4,1.08,1
10083.0,1.44,1.39,1.25,1
10085.0,1.44,1.39,1.35,1
10087.0,1.44,1.39,1.4,1
10088.0,1.43,1.38,1.27,1
10090.0,1.44,1.39,1.05,1
10092.0,1.44,1.39,0.98,1
10094.0,1.44,1.39,1.42,1
10096.0,1.44,1.39,1.86,1
10098.0,1.44,1.39,1.67,1
10100.0,1.44,1.39,1.54,1
10102.0,1.44,1.39,1.66,1
10104.0,1.44,1.38,1.75,1
10106.0,1.44,1.38,1.73,1
10108.0,1.44,1.37,1.87,1
10110.0,1.44,1.38,2.0,1
10113.0,1.44,1.38,2.07,1
10115.0,1.44,1.38,1.78,1
10117.0,1.44,1.38,1.67,0
10119.0,1.44,1.41,1.55,0
10121.0,1.44,1.41,1.47,0
10123.0,1.44,1.4,1.07,0
10125.0,1.44,1.4,0.79,0
10127.0,1.44,1.39,0.79,0
10129.0,1.44,1.39,0.76,0
10130.0,1.44,1.39,0.9,0
10132.0,1.44,1.39,1.1,0
10134.0,1.44,1.39,1.12,0
10136.0,1.44,1.39,1.43,0
10138.0,1.44,1.39,2.18,0
10140.0,1.44,1.38,2.21,0
10142.0,1.44,1.38,1.87,0
10144.0,1.44,1.37,1.71,0
10146.0,1.44,1.37,2.0,0
10148.0,1.44,1.37,2.04,0
10150.0,1.44,1.37,1.32,0
10152.0,1.44,1.37,1.1,0
10155.0,1.44,1.37,1.01,0
10157.0,1.44,1.37,1.08,0
10159.0,1.44,1.37,0.95,0
10161.0,1.44,1.37,1.22,0
10163.0,1.44,1.36,1.51,0
10165.0,1.44,1.36,1.64,0
10167.0,1.44,1.35,2.06,0
10169.0,1.43,1.35,2.14,0
10171.0,1.44,1.35,1.83,0
10173.0,1.44,1.35,1.94,0
10174.0,1.44,1.36,1.81,0
10176.0,1.44,1.36,1.58,0
10178.0,1.44,1.36,1.51,0
10180.0,1.44,1.36,1.06,0
10182.0,1.44,1.35,1.29,0
10184.0,1.44,1.35,1.45,0
10186.0,1.44,1.35,1.13,0
10188.0,1.44,1.35,0.73,0
10190.0,1.44,1.35,0.78,0
10192.0,1.44,1.35,0.62,0
10194.0,1.44,1.35,0.5,0
10196.0,1.44,1.36,0.5,0
10199.0,1.44,1.36,0.35,0
10201.0,1.44,1.35,0.3,0
10203.0,1.44,1.35,0.24,0
10205.0,1.44,1.35,0.22,0
10207.0,1.44,1.35,0.16,0
10209.0,1.43,1.34,0.22,0
10211.0,1.44,1.35,0.32,0
10213.0,1.44,1.35,0.45,0
10215.0,1.44,1.35,0.26,0
10217.0,1.44,1.36,0.18,0
10218.0,1.44,1.36,0.36,0
10220.0,1.44,1.35,0.54,0
10222.0,1.44,1.35,0.61,0
10224.0,1.44,1.35,0.43,0
10226.0,1.44,1.35,0.44,0
10228.0,1.43,1.35,0.66,0
10230.0,1.44,1.35,0.67,0
10232.0,1.44,1.35,0.25,0
10234.0,1.44,1.36,0.17,0
10236.0,1.44,1.36,0.3,0
10238.0,1.44,1.36,0.36,0
10241.0,1.44,1.36,0.22,0
10243.0,1.44,1.36,0.48,0
10245.0,1.44,1.35,0.45,0
10247.0,1.43,1.35,0.04,0
10249.0,1.43,1.35,0.02,0
10251.0,1.44,1.35,0.02,0
10253.0,1.44,1.35,0.02,0
10255.0,1.44,1.36,0.02,0
10257.0,1.44,1.36,0.02,0
10259.0,1.44,1.36,0.01,0
10261.0,1.44,1.36,0.02,0
10262.0,1.44,1.35,0.05,0
10264.0,1.44,1.35,1.45,0
10266.0,1.43,1.35,1.88,0
10268.0,1.43,1.35,1.72,0
10270.0,1.44,1.35,1.43,0
10272.0,1.44,1.35,1.21,0
10274.0,1.44,1.36,0.85,0
10276.0,1.44,1.36,0.71,0
10278.0,1.44,1.36,1.1,0
10280.0,1.44,1.36,1.11,0
10283.0,1.44,1.36,0.97,0
10285.0,1.44,1.35,0.81,0
10287.0,1.44,1.35,0.64,0
10289.0,1.44,1.35,0.38,0
10291.0,1.44,1.35,0.16,0
10293.0,1.44,1.36,0.07,0
10295.0,1.44,1.36,0.12,0
10297.0,1.44,1.36,0.17,0
10299.0,1.44,1.36,0.08,0
10301.0,1.44,1.36,0.31,0
10303.0,1.44,1.36,0.84,0
10305.0,1.44,1.35,1.05,0
10306.0,1.43,1.35,1.04,0
10308.0,1.44,1.35,0.98,0
10310.0,1.44,1.35,0.69,0
