time,ch3
1.74,1.42
3.74,1.59
5.74,1.39
7.74,1.32
9.74,0.88
11.74,0.78
13.74,0.77
15.74,0.89
17.74,1.01
19.74,1.31
21.74,1.47
23.74,1.7
25.74,1.58
27.74,1.25
29.74,0.93
31.74,0.84
33.74,0.92
35.74,1.05
37.74,1.18
39.74,1.69
42.74,1.9
44.74,2.23
45.74,2.04
47.74,1.73
49.74,1.41
51.74,1.38
53.74,1.47
55.74,1.53
57.74,1.67
59.74,1.89
61.74,1.99
63.74,2.16
65.74,2.2
67.74,2.06
69.74,1.73
71.74,1.53
73.74,1.44
75.74,1.56
77.74,1.64
79.74,1.65
81.74,1.91
84.74,2.18
86.74,2.13
88.74,1.93
90.74,1.6
92.74,1.45
93.74,1.59
95.74,1.69
97.74,1.8
99.74,2.18
101.74,2.37
103.74,2.59
105.74,2.44
107.74,2.06
109.74,1.68
111.74,1.42
113.74,1.44
115.74,1.54
117.74,1.79
119.74,1.97
121.74,2.23
123.74,2.37
126.74,2.23
128.74,1.84
130.74,1.37
132.74,1.35
134.74,1.45
136.74,1.43
137.74,1.75
139.74,1.88
141.74,2.03
143.74,2.07
145.74,1.85
147.74,1.56
149.74,1.29
151.74,1.25
153.74,1.32
155.74,1.36
157.74,1.34
159.74,1.47
161.74,1.62
163.74,1.69
165.74,1.45
167.74,1.33
170.74,0.98
172.74,0.9
174.74,0.9
176.74,0.97
178.74,1.05
179.74,1.21
181.74,1.42
183.74,1.67
185.74,1.58
187.74,1.44
189.74,0.94
191.74,0.93
193.74,1.01
195.74,1.02
197.74,1.14
199.74,1.4
201.74,1.46
203.74,1.71
205.74,1.63
207.74,1.44
209.74,1.05
212.74,0.81
214.74,0.79
216.74,0.89
218.74,1.13
220.74,1.44
222.74,1.65
223.74,1.84
225.74,1.68
227.74,1.35
229.74,0.9
231.74,0.88
233.74,0.94
235.74,1.09
237.74,1.37
239.74,1.54
241.74,1.75
243.74,1.97
245.74,1.75
247.74,1.55
249.74,1.15
251.74,0.93
254.74,1.01
256.74,1.13
258.74,1.38
260.74,1.6
262.74,1.73
264.74,1.8
265.74,1.75
267.74,1.57
269.74,1.19
271.74,1.03
273.74,1.1
275.74,1.23
277.74,1.24
279.74,1.43
281.74,1.54
283.74,1.79
285.74,1.8
287.74,1.62
289.74,1.22
291.74,1.07
293.74,1.09
295.74,1.01
298.74,1.27
300.74,1.54
302.74,1.75
304.74,1.96
306.74,1.79
307.74,1.51
309.74,1.14
311.74,1.03
313.74,0.94
315.74,1.25
317.74,1.55
319.74,1.75
321.74,1.91
323.74,2.03
325.74,1.79
327.74,1.55
329.74,1.21
331.74,1.17
333.74,1.21
335.74,1.34
337.74,1.51
340.74,1.66
342.74,1.84
344.74,1.95
346.74,1.71
348.74,1.51
350.74,1.07
351.74,1.1
353.74,1.3
355.74,1.39
357.74,1.66
359.74,1.92
361.74,2.05
363.74,2.2
365.74,2.01
367.74,1.89
369.74,1.41
371.74,1.39
373.74,1.58
375.74,1.74
377.74,1.8
379.74,1.94
382.74,2.04
384.74,2.25
386.74,2.18
388.74,1.94
390.74,1.42
392.74,1.35
393.74,1.22
395.74,1.52
397.74,1.74
399.74,1.93
401.74,2.16
403.74,2.52
405.74,2.27
407.74,2.05
409.74,1.55
411.74,1.39
413.74,1.39
415.74,1.35
417.74,1.55
419.74,1.78
421.74,1.93
423.74,2.1
426.74,2.03
428.74,1.59
430.74,1.12
432.74,1.09
434.74,1.26
435.74,1.31
437.74,1.57
439.74,1.75
441.74,1.98
443.74,2.22
445.74,1.97
447.74,1.67
449.74,1.39
451.74,1.28
453.74,1.37
455.74,1.46
457.74,1.56
459.74,1.63
461.74,1.7
463.74,1.87
465.74,1.63
468.74,1.45
470.74,1.22
472.74,1.08
474.74,1.18
476.74,1.21
478.74,1.21
479.74,1.4
481.74,1.64
483.74,1.81
485.74,1.65
487.74,1.51
489.74,1.19
491.74,0.98
493.74,1.05
495.74,1.11
497.74,1.16
499.74,1.42
501.74,1.73
503.74,1.99
505.74,1.89
507.74,1.74
510.74,1.27
512.74,1.1
514.74,1.1
516.74,1.13
518.74,1.28
520.74,1.52
521.74,1.73
523.74,1.87
525.74,1.71
527.74,1.41
529.74,0.92
531.74,0.86
533.74,0.92
535.74,1.26
537.74,1.45
539.74,1.65
541.74,1.84
543.74,1.94
545.74,1.69
547.74,1.6
549.74,1.26
551.74,1.17
554.74,1.06
556.74,1.15
558.74,1.19
560.74,1.38
562.74,1.43
563.74,1.63
565.74,1.52
567.74,1.46
569.74,1.04
571.74,0.84
573.74,0.88
575.74,1.05
577.74,0.98
579.74,1.29
581.74,1.45
583.74,1.75
585.74,1.7
587.74,1.55
589.74,1.12
591.74,1.08
593.74,1.09
596.74,1.15
598.74,1.24
600.74,1.6
602.74,1.86
604.74,2.06
606.74,1.94
607.74,1.66
609.74,1.33
611.74,1.13
613.74,1.01
615.74,1.19
617.74,1.34
619.74,1.51
621.74,1.62
623.74,1.72
625.74,1.56
627.74,1.26
629.74,0.94
631.74,0.75
633.74,0.76
635.74,0.98
638.74,1.25
640.74,1.43
642.74,1.65
644.74,1.86
646.74,1.55
648.74,1.28
649.74,0.94
651.74,0.92
653.74,1.01
655.74,0.98
657.74,1.25
659.74,1.44
661.74,1.63
663.74,1.57
665.74,1.45
667.74,1.2
669.74,0.83
671.74,0.86
673.74,1.13
675.74,1.11
677.74,1.05
679.74,1.22
682.74,1.36
684.74,1.5
686.74,1.39
688.74,1.21
690.74,0.86
691.74,0.77
693.74,0.76
695.74,0.94
697.74,0.97
699.74,1.32
701.74,1.53
703.74,1.72
705.74,1.58
707.74,1.43
709.74,0.84
711.74,0.55
713.74,0.62
715.74,0.77
717.74,0.93
719.74,1.22
721.74,1.61
724.74,2.05
726.74,2.01
728.74,1.91
730.74,1.62
732.74,1.58
734.74,1.61
735.74,1.82
737.74,2.11
739.74,2.45
741.74,2.43
743.74,2.44
745.74,2.24
747.74,2.01
749.74,1.53
751.74,1.54
753.74,1.71
755.74,1.65
757.74,1.54
759.74,1.64
761.74,1.66
763.74,1.87
766.74,1.7
768.74,1.6
770.74,1.38
772.74,1.52
774.74,1.62
776.74,1.84
777.74,1.84
779.74,1.99
781.74,2.13
783.74,2.29
785.74,2.19
787.74,1.85
789.74,1.41
791.74,1.3
793.74,1.36
795.74,1.15
797.74,1.0
799.74,1.2
801.74,1.43
803.74,1.52
805.74,1.35
807.74,1.29
810.74,0.95
812.74,0.81
814.74,0.93
816.74,1.08
818.74,1.37
819.74,1.48
821.74,1.7
823.74,1.69
825.74,1.69
827.74,1.41
829.74,1.05
831.74,1.09
833.74,1.13
835.74,1.15
837.74,1.45
839.74,1.46
841.74,1.67
843.74,1.84
845.74,1.61
847.74,1.3
849.74,1.01
852.74,1.11
854.74,1.17
856.74,1.29
858.74,1.49
860.74,1.58
862.74,1.74
863.74,1.86
865.74,1.7
867.74,1.42
869.74,1.12
871.74,1.29
873.74,1.48
875.74,1.56
877.74,1.65
879.74,1.72
881.74,1.72
883.74,1.79
885.74,1.52
887.74,1.36
889.74,0.91
891.74,0.81
894.74,0.76
896.74,0.85
898.74,0.87
900.74,1.02
902.74,1.1
904.74,1.27
905.74,1.1
907.74,0.91
909.74,0.46
911.74,0.35
913.74,0.49
915.74,0.66
917.74,0.89
919.74,1.11
921.74,1.18
923.74,1.43
925.74,1.26
927.74,0.96
929.74,0.57
931.74,0.74
933.74,0.72
935.74,0.85
938.74,1.05
940.74,1.28
942.74,1.43
944.74,1.59
946.74,1.31
947.74,0.98
949.74,0.63
951.74,0.69
953.74,0.79
955.74,0.79
957.74,0.92
959.74,1.01
961.74,1.05
963.74,1.21
965.74,1.06
967.74,0.97
969.74,0.74
971.74,0.66
973.74,0.92
975.74,1.05
977.74,1.17
980.74,1.39
982.74,1.73
984.74,2.01
986.74,2.03
988.74,1.78
990.74,1.48
991.74,1.44
993.74,1.42
995.74,1.33
997.74,1.49
999.74,1.72
1001.74,1.85
1003.74,2.04
1005.74,1.88
1007.74,1.63
1009.74,1.1
1011.74,0.98
1013.74,1.13
1015.74,1.3
1017.74,1.52
1019.74,1.77
1022.74,2.02
1024.74,2.08
1026.74,1.98
1028.74,1.75
1030.74,1.38
1032.74,1.36
1033.74,1.4
1035.74,1.63
1037.74,1.83
1039.74,1.92
1041.74,2.02
1043.74,2.04
1045.74,1.7
1047.74,1.64
1049.74,1.37
1051.74,1.37
1053.74,1.45
1055.74,1.55
1057.74,1.67
1059.74,1.8
1061.74,1.8
1063.74,1.91
1066.74,1.86
1068.74,1.62
1070.74,1.17
1072.74,1.08
1074.74,1.15
1076.74,1.01
1077.74,1.2
1079.74,1.48
1081.74,1.75
1083.74,1.99
1085.74,1.79
1087.74,1.6
1089.74,1.18
1091.74,1.26
1093.74,1.5
1095.74,1.54
1097.74,1.73
1099.74,2.01
1101.74,2.16
1103.74,2.26
1105.74,2.02
1108.74,1.74
1110.74,1.28
1112.74,1.23
1114.74,1.22
1116.74,1.52
1118.74,1.58
1119.74,1.9
1121.74,2.08
1123.74,2.24
1125.74,2.12
1127.74,1.89
1129.74,1.44
1131.74,1.55
1133.74,1.66
1135.74,1.83
1137.74,1.93
1139.74,1.95
1141.74,2.08
1143.74,2.35
1145.74,2.29
1147.74,2.06
1150.74,1.67
1152.74,1.38
1154.74,1.35
1156.74,1.44
1158.74,1.72
1160.74,1.78
1162.74,1.92
1163.74,2.03
1165.74,1.85
1167.74,1.68
1169.74,1.39
1171.74,1.45
1173.74,1.6
1175.74,1.59
1177.74,1.6
1179.74,1.76
1181.74,1.95
1183.74,2.01
1185.74,1.83
1187.74,1.62
1189.74,1.32
1191.74,1.16
1194.74,1.28
1196.74,1.3
1198.74,1.53
1200.74,1.68
1202.74,1.87
1204.74,2.0
1205.74,1.88
1207.74,1.68
1209.74,1.18
1211.74,0.98
1213.74,1.03
1215.74,1.18
1217.74,1.26
1219.74,1.5
1221.74,1.67
1223.74,1.75
1225.74,1.54
1227.74,1.26
1229.74,0.85
1231.74,0.89
1233.74,1.03
1236.74,1.24
1238.74,1.25
1240.74,1.42
1242.74,1.59
1244.74,1.67
1246.74,1.42
1248.74,1.22
1249.74,0.91
1251.74,0.85
1253.74,0.9
1255.74,1.06
1257.74,1.33
1259.74,1.59
1261.74,1.76
1263.74,1.92
1265.74,1.85
1267.74,1.71
1269.74,1.55
1271.74,1.55
1273.74,1.6
1275.74,1.63
1278.74,1.67
1280.74,1.93
1282.74,2.06
1284.74,2.24
1286.74,2.08
1288.74,1.83
1290.74,1.42
1291.74,1.36
1293.74,1.33
1295.74,1.35
1297.74,1.43
1299.74,1.7
1301.74,1.93
1303.74,2.13
1305.74,1.86
1307.74,1.58
1309.74,1.23
1311.74,1.22
1313.74,1.28
1315.74,1.38
1317.74,1.61
1319.74,1.79
1322.74,1.95
1324.74,1.99
1326.74,1.88
1328.74,1.63
1330.74,1.35
1332.74,1.32
1334.74,1.28
1335.74,1.45
1337.74,1.8
1339.74,1.99
1341.74,2.12
1343.74,2.06
1345.74,1.8
1347.74,1.55
1349.74,1.3
1351.74,1.27
1353.74,1.41
1355.74,1.49
1357.74,1.72
1359.74,1.88
1361.74,1.97
1364.74,2.09
1366.74,2.01
1368.74,1.72
1370.74,1.48
1372.74,1.44
1374.74,1.49
1376.74,1.31
1377.74,1.21
1379.74,1.54
1381.74,1.75
1383.74,1.88
1385.74,1.85
1387.74,1.69
1389.74,1.26
1391.74,1.26
1393.74,1.14
1395.74,1.25
1397.74,1.5
1399.74,1.72
1401.74,1.87
1403.74,2.17
1406.74,2.04
1408.74,1.86
1410.74,1.42
1412.74,1.42
1414.74,1.27
1416.74,1.45
1418.74,1.46
1420.74,1.64
1421.74,1.76
1423.74,1.85
1425.74,1.52
1427.74,1.32
1429.74,1.16
1431.74,1.27
1433.74,1.27
1435.74,1.5
1437.74,1.65
1439.74,2.01
1441.74,2.15
1443.74,2.24
1445.74,1.98
1447.74,1.86
1450.74,1.49
1452.74,1.53
1454.74,1.69
1456.74,1.89
1458.74,1.9
1460.74,1.99
1462.74,2.13
1463.74,2.19
1465.74,1.99
1467.74,1.82
1469.74,1.41
1471.74,1.39
1473.74,1.37
1475.74,1.36
1477.74,1.46
1479.74,1.68
1481.74,1.74
1483.74,1.94
1485.74,1.85
1487.74,1.65
1489.74,1.32
1492.74,1.47
1494.74,1.51
1496.74,1.58
1498.74,1.74
1500.74,1.95
1502.74,2.14
1504.74,2.29
1506.74,2.03
1507.74,1.71
1509.74,1.25
1511.74,1.15
1513.74,1.15
1515.74,1.28
1517.74,1.4
1519.74,1.51
1521.74,1.63
1523.74,1.65
1525.74,1.35
1527.74,1.16
1529.74,0.86
1531.74,0.83
1534.74,0.97
1536.74,1.16
1538.74,1.34
1540.74,1.54
1542.74,1.68
1544.74,1.68
1546.74,1.58
1548.74,1.2
1550.74,0.78
1551.74,0.8
1553.74,0.89
1555.74,0.96
1557.74,1.01
1559.74,1.18
1561.74,1.34
1563.74,1.4
1565.74,1.3
1567.74,1.12
1569.74,0.75
1571.74,0.75
1573.74,0.74
1575.74,0.77
1578.74,0.99
1580.74,1.21
1582.74,1.46
1584.74,1.51
1586.74,1.45
1588.74,1.2
1590.74,0.98
1592.74,0.88
1593.74,0.77
1595.74,0.92
1597.74,1.12
1599.74,1.48
1601.74,1.76
1603.74,1.89
1605.74,1.53
1607.74,1.6
1609.74,1.43
1611.74,1.26
1613.74,1.2
1615.74,1.26
1617.74,1.63
1620.74,2.25
1622.74,2.49
1624.74,2.7
1626.74,2.54
1628.74,2.36
1630.74,1.91
1632.74,1.91
1634.74,2.0
1636.74,2.32
1637.74,2.6
1639.74,2.37
1641.74,1.97
1643.74,2.11
1645.74,1.57
1647.74,0.89
1649.74,0.53
1651.74,0.27
1653.74,0.19
1655.74,0.51
1657.74,0.92
1659.74,0.89
1662.74,0.83
1664.74,0.89
1666.74,0.78
1668.74,0.81
1670.74,0.7
1672.74,0.95
1674.74,0.72
1676.74,0.12
1678.74,0.05
1679.74,0.19
1681.74,0.3
1683.74,0.52
1685.74,1.19
1687.74,1.47
1689.74,1.53
1691.74,1.65
1693.74,2.17
1695.74,2.69
1697.74,3.3
1699.74,3.3
1701.74,3.3
1703.74,3.3
1706.74,3.3
1708.74,3.3
1710.74,3.3
1712.74,3.3
1714.74,3.3
1716.74,3.3
1718.74,3.3
1720.74,3.3
1722.74,3.3
1723.74,3.3
1725.74,3.3
1727.74,3.3
1729.74,3.3
1731.74,3.3
1733.74,3.3
1735.74,3.3
1737.74,3.3
1739.74,3.3
1741.74,3.3
1743.74,3.3
1745.74,3.3
1748.74,3.3
1750.74,3.3
1752.74,3.3
1754.74,3.3
1756.74,3.3
1758.74,3.3
1760.74,3.3
1762.74,3.3
1764.74,3.3
1765.74,3.3
1767.74,3.3
1769.74,3.3
1771.74,3.3
1773.74,3.3
1775.74,3.3
1777.74,3.3
1779.74,3.3
1781.74,3.3
1783.74,3.3
1785.74,3.3
1787.74,3.3
1790.74,3.3
1792.74,3.3
1794.74,3.3
1796.74,3.3
1798.74,3.3
1800.74,3.3
1802.74,3.3
1804.74,2.84
1806.74,2.05
1808.74,1.47
1809.74,0.62
1811.74,0.0
1813.74,0.0
1815.74,0.0
1817.74,0.0
1819.74,0.0
1821.74,0.0
1823.74,0.0
1825.74,0.0
1827.74,0.0
1829.74,0.0
1831.74,0.0
1834.74,0.0
1836.74,0.0
1838.74,0.0
1840.74,0.0
1842.74,0.0
1844.74,0.0
1846.74,0.0
1848.74,0.0
1850.74,0.0
1851.74,0.0
1853.74,0.0
1855.74,0.0
1857.74,0.0
1859.74,0.0
1861.74,0.0
1863.74,0.0
1865.74,0.0
1867.74,0.0
1869.74,0.0
1871.74,0.0
1873.74,0.0
1876.74,0.0
1878.74,0.0
1880.74,0.0
1882.74,0.0
1884.74,0.0
1886.74,0.0
1888.74,0.0
1890.74,0.0
1892.74,0.0
1894.74,0.0
1895.74,0.0
1897.74,0.0
1899.74,0.0
1901.74,0.0
1903.74,0.0
1905.74,0.0
1907.74,0.0
1909.74,0.0
1911.74,0.0
1913.74,0.0
1915.74,0.0
1918.74,0.0
1920.74,0.0
1922.74,0.0
1924.74,0.0
1926.74,0.0
1928.74,0.0
1930.74,0.0
1932.74,0.0
1934.74,0.0
1936.74,0.0
1937.74,0.0
1939.74,0.0
1941.74,0.0
1943.74,0.0
1945.74,0.0
1947.74,0.0
1949.74,0.0
1951.74,0.0
1953.74,0.0
1955.74,0.0
1957.74,0.0
1959.74,0.0
1962.74,0.0
1964.74,0.0
1966.74,0.0
1968.74,0.0
1970.74,0.0
1972.74,0.0
1974.74,0.0
1976.74,0.0
1978.74,0.0
1980.74,0.0
1981.74,0.0
1983.74,0.0
1985.74,0.0
1987.74,0.0
1989.74,0.0
1991.74,0.0
1993.74,0.0
1995.74,0.0
1997.74,0.08
1999.74,0.6
2001.74,0.95
2004.74,1.17
2006.74,1.09
2008.74,0.99
2010.74,0.83
2012.74,0.87
2014.74,1.0
2016.74,1.06
2018.74,1.35
2020.74,1.73
2022.74,1.69
2023.74,1.76
2025.74,1.62
2027.74,1.61
2029.74,1.3
2031.74,1.41
2033.74,1.62
2035.74,1.83
2037.74,2.04
2039.74,2.34
2041.74,2.43
2043.74,2.71
2046.74,2.75
2048.74,2.69
2050.74,2.44
2052.74,2.54
2054.74,2.59
2056.74,2.58
2058.74,2.58
2060.74,2.61
2062.74,2.75
2064.74,2.62
2066.74,2.46
2067.74,2.21
2069.74,1.95
2071.74,1.86
2073.74,1.91
2075.74,1.87
2077.74,2.06
2079.74,2.3
2081.74,2.53
2083.74,2.47
2085.74,2.29
2087.74,2.02
2090.74,1.63
2092.74,1.61
2094.74,1.53
2096.74,1.56
2098.74,1.77
2100.74,2.06
2102.74,2.24
2104.74,2.19
2106.74,1.98
2108.74,1.87
2109.74,1.61
2111.74,1.51
2113.74,1.5
2115.74,1.31
2117.74,1.65
2119.74,1.87
2121.74,2.05
2123.74,2.14
2125.74,1.85
2127.74,1.59
2129.74,1.37
2132.74,1.4
2134.74,1.49
2136.74,1.62
2138.74,1.77
2140.74,1.87
2142.74,1.9
2144.74,1.95
2146.74,1.63
2148.74,1.58
2150.74,1.21
2152.74,1.32
2153.74,1.45
2155.74,1.6
2157.74,1.56
2159.74,1.75
2161.74,1.85
2163.74,2.0
2165.74,1.86
2167.74,1.7
2169.74,1.38
2171.74,1.42
2174.74,1.4
2176.74,1.4
2178.74,1.44
2180.74,1.75
2182.74,1.89
2184.74,1.99
2186.74,1.84
2188.74,1.56
2190.74,1.26
2192.74,1.24
2194.74,1.21
2195.74,1.36
2197.74,1.59
2199.74,1.83
2201.74,2.04
2203.74,2.08
2205.74,1.92
2207.74,1.72
2209.74,1.37
2211.74,1.36
2213.74,1.37
2215.74,1.61
2218.74,1.83
2220.74,2.04
2222.74,2.16
2224.74,2.2
2226.74,1.75
2228.74,1.73
2230.74,1.53
2232.74,1.51
2234.74,1.64
2236.74,1.7
2238.74,1.71
2239.74,1.88
2241.74,1.98
2243.74,1.89
2245.74,1.8
2247.74,1.6
2249.74,1.39
2251.74,1.48
2253.74,1.56
2255.74,1.57
2257.74,1.72
2260.74,1.93
2262.74,2.02
2264.74,1.85
2266.74,1.75
2268.74,1.45
2270.74,1.29
2272.74,1.38
2274.74,1.49
2276.74,1.35
2278.74,1.52
2280.74,1.75
2282.74,1.93
2283.74,1.99
2285.74,1.92
2287.74,1.58
2289.74,1.31
2291.74,1.3
2293.74,1.29
2295.74,1.36
2297.74,1.53
2299.74,1.75
2302.74,1.9
2304.74,2.02
2306.74,1.86
2308.74,1.67
2310.74,1.47
2312.74,1.45
2314.74,1.48
2316.74,1.57
2318.74,1.81
2320.74,1.99
2322.74,2.2
2324.74,2.18
2326.74,1.84
2327.74,1.69
2329.74,1.41
2331.74,1.48
2333.74,1.45
2335.74,1.62
2337.74,1.7
2339.74,1.89
2341.74,2.0
2343.74,1.92
2346.74,1.85
2348.74,1.73
2350.74,1.54
2352.74,1.59
2354.74,1.55
2356.74,1.75
2358.74,1.91
2360.74,2.09
2362.74,2.2
2364.74,2.33
2366.74,2.21
2368.74,2.06
2369.74,1.85
2371.74,1.93
2373.74,1.85
2375.74,1.96
2377.74,1.99
2379.74,2.14
2381.74,2.38
2383.74,2.55
2385.74,2.33
2388.74,2.07
2390.74,1.75
2392.74,1.72
2394.74,1.83
2396.74,1.87
2398.74,1.99
2400.74,2.27
2402.74,2.45
2404.74,2.53
2406.74,2.24
2408.74,2.18
2410.74,2.05
2412.74,2.13
2413.74,2.28
2415.74,2.62
2417.74,2.95
2419.74,3.05
2421.74,2.79
2423.74,2.8
2425.74,2.67
2427.74,2.38
2430.74,2.43
2432.74,2.57
2434.74,2.73
2436.74,2.88
2438.74,2.99
2440.74,3.05
2442.74,3.3
2444.74,3.19
2446.74,3.01
2448.74,2.43
2450.74,2.47
2452.74,2.34
2454.74,2.29
2456.74,2.38
2457.74,2.42
2459.74,2.44
2461.74,2.69
2463.74,2.71
2465.74,2.4
2467.74,2.48
2469.74,2.27
2471.74,2.6
2474.74,3.17
2476.74,3.3
2478.74,3.3
2480.74,3.3
2482.74,3.3
2484.74,3.3
2486.74,3.3
2488.74,3.3
2490.74,3.3
2492.74,3.3
2494.74,3.3
2496.74,3.3
2498.74,3.3
2499.74,3.3
2501.74,3.3
2503.74,3.3
2505.74,3.3
2507.74,3.3
2509.74,3.3
2511.74,3.3
2513.74,3.3
2516.74,3.3
2518.74,3.3
2520.74,3.3
2522.74,3.3
2524.74,3.3
2526.74,3.3
2528.74,3.3
2530.74,3.3
2532.74,3.3
2534.74,3.3
2536.74,3.3
2538.74,3.3
2540.74,3.3
2542.74,3.3
2543.74,3.3
2545.74,3.3
2547.74,3.3
2549.74,3.3
2551.74,3.3
2553.74,3.3
2555.74,3.3
2558.74,3.3
2560.74,3.3
2562.74,3.3
2564.74,3.3
2566.74,3.22
2568.74,3.09
2570.74,2.94
2572.74,3.17
2574.74,3.19
2576.74,2.8
2578.74,2.82
2580.74,3.02
2582.74,2.78
2584.74,2.64
2586.74,2.37
2587.74,1.83
2589.74,1.18
2591.74,0.72
2593.74,0.55
2595.74,0.28
2597.74,0.3
2599.74,0.23
2602.74,0.14
2604.74,0.0
2606.74,0.0
2608.74,0.0
2610.74,0.0
2612.74,0.0
2614.74,0.0
2616.74,0.0
2618.74,0.0
2620.74,0.0
2622.74,0.0
2624.74,0.0
2626.74,0.0
2628.74,0.0
2629.74,0.0
2631.74,0.0
2633.74,0.0
2635.74,0.0
2637.74,0.0
2639.74,0.0
2641.74,0.0
2644.74,0.0
2646.74,0.0
2648.74,0.0
2650.74,0.0
2652.74,0.0
2654.74,0.0
2656.74,0.0
2658.74,0.0
2660.74,0.0
2662.74,0.0
2664.74,0.0
2666.74,0.0
2668.74,0.0
2670.74,0.0
2672.74,0.0
2673.74,0.0
2675.74,0.0
2677.74,0.0
2679.74,0.0
2681.74,0.0
2683.74,0.0
2686.74,0.0
2688.74,0.0
2690.74,0.0
2692.74,0.0
2694.74,0.0
2696.74,0.0
2698.74,0.0
2700.74,0.0
2702.74,0.0
2704.74,0.0
2706.74,0.0
2708.74,0.0
2710.74,0.0
2712.74,0.0
2714.74,0.0
2715.74,0.0
2717.74,0.0
2719.74,0.0
2721.74,0.0
2723.74,0.0
2725.74,0.0
2727.74,0.0
2730.74,0.0
2732.74,0.0
2734.74,0.0
2736.74,0.0
2738.74,0.0
2740.74,0.0
2742.74,0.0
2744.74,0.0
2746.74,0.0
2748.74,0.0
2750.74,0.0
2752.74,0.0
2754.74,0.0
2756.74,0.0
2758.74,0.0
2759.74,0.0
2761.74,0.0
2763.74,0.0
2765.74,0.0
2767.74,0.0
2769.74,0.0
2772.74,0.0
2774.74,0.0
2776.74,0.0
2778.74,0.0
2780.74,0.0
2782.74,0.0
2784.74,0.0
2786.74,0.0
2788.74,0.0
2790.74,0.0
2792.74,0.0
2794.74,0.0
2796.74,0.0
2798.74,0.0
2800.74,0.08
2801.74,0.16
2803.74,0.13
2805.74,0.04
2807.74,0.0
2809.74,0.0
2811.74,0.0
2814.74,0.0
2816.74,0.05
2818.74,0.21
2820.74,0.44
2822.74,0.61
2824.74,0.55
2826.74,0.36
2828.74,0.14
2830.74,0.1
2832.74,0.15
2834.74,0.11
2836.74,0.21
2838.74,0.36
2840.74,0.55
2842.74,0.59
2844.74,0.64
2845.74,0.59
2847.74,0.45
2849.74,0.44
2851.74,0.45
2853.74,0.59
2855.74,0.73
2858.74,0.7
2860.74,0.87
2862.74,1.15
2864.74,1.04
2866.74,0.83
2868.74,0.62
2870.74,0.48
2872.74,0.64
2874.74,0.62
2876.74,0.68
2878.74,0.81
2880.74,1.01
2882.74,1.15
2884.74,1.31
2886.74,1.21
2887.74,0.98
2889.74,0.74
2891.74,0.64
2893.74,0.76
2895.74,0.89
2897.74,1.17
2900.74,1.38
2902.74,1.38
2904.74,1.55
2906.74,1.49
2908.74,1.13
2910.74,0.86
2912.74,1.0
2914.74,0.94
2916.74,0.98
2918.74,1.18
2920.74,1.42
2922.74,1.41
2924.74,1.33
2926.74,1.02
2928.74,0.84
2930.74,0.78
2931.74,0.89
2933.74,0.79
2935.74,0.88
2937.74,1.1
2939.74,1.4
2942.74,1.57
2944.74,1.56
2946.74,1.35
2948.74,1.07
2950.74,0.94
2952.74,0.95
2954.74,1.13
2956.74,1.21
2958.74,1.19
2960.74,1.38
2962.74,1.39
2964.74,1.33
2966.74,1.33
2968.74,1.11
2970.74,0.92
2972.74,0.8
2974.74,0.68
2975.74,0.66
2977.74,0.78
2979.74,1.01
2981.74,1.27
2983.74,1.2
2986.74,1.11
2988.74,0.77
2990.74,0.7
2992.74,0.63
2994.74,0.68
2996.74,0.62
2998.74,0.99
3000.74,1.25
3002.74,1.39
3004.74,1.42
3006.74,1.28
3008.74,1.07
3010.74,1.04
3012.74,1.15
3014.74,1.28
3016.74,1.41
3017.74,1.53
3019.74,1.65
3021.74,1.76
3023.74,1.85
3025.74,1.92
3028.74,1.99
3030.74,2.05
3032.74,2.11
3034.74,2.17
3036.74,2.23
3038.74,2.28
3040.74,2.34
3042.74,2.38
3044.74,2.42
3046.74,2.44
3048.74,2.45
3050.74,2.47
3052.74,2.49
3054.74,2.51
3056.74,2.53
3058.74,2.55
3060.74,2.56
3061.74,2.57
3063.74,2.58
3065.74,2.58
3067.74,2.58
3070.74,2.58
3072.74,2.58
3074.74,2.58
3076.74,2.58
3078.74,2.58
3080.74,2.58
3082.74,2.58
3084.74,2.57
3086.74,2.56
3088.74,2.55
3090.74,2.53
3092.74,2.53
3094.74,2.52
3096.74,2.51
3098.74,2.5
3100.74,2.49
3102.74,2.48
3104.74,2.47
3105.74,2.46
3107.74,2.44
3109.74,2.43
3111.74,2.41
3114.74,2.4
3116.74,2.39
3118.74,2.38
3120.74,2.37
3122.74,2.36
3124.74,2.35
3126.74,2.33
3128.74,2.31
3130.74,2.29
3132.74,2.28
3134.74,2.27
3136.74,2.26
3138.74,2.25
3140.74,2.24
3142.74,2.23
3144.74,2.22
3146.74,2.2
3148.74,2.18
3149.74,2.17
3151.74,2.15
3153.74,2.15
3156.74,2.14
3158.74,2.13
3160.74,2.12
3162.74,2.11
3164.74,2.09
3166.74,2.08
3168.74,2.06
3170.74,2.05
3172.74,2.04
3174.74,2.03
3176.74,2.02
3178.74,2.02
3180.74,2.01
3182.74,2.0
3184.74,1.99
3186.74,1.98
3188.74,1.96
3190.74,1.95
3191.74,1.94
3193.74,1.94
3195.74,1.93
3198.74,1.92
3200.74,1.92
3202.74,1.91
3204.74,1.9
3206.74,1.89
3208.74,1.88
3210.74,1.87
3212.74,1.86
3214.74,1.85
3216.74,1.85
3218.74,1.84
3220.74,1.84
3222.74,1.83
3224.74,1.82
3226.74,1.81
3228.74,1.8
3230.74,1.8
3232.74,1.79
3234.74,1.78
3235.74,1.78
3237.74,1.77
3239.74,1.77
3242.74,1.77
3244.74,1.76
3246.74,1.75
3248.74,1.75
3250.74,1.74
3252.74,1.73
3254.74,1.73
3256.74,1.73
3258.74,1.72
3260.74,1.72
3262.74,1.72
3264.74,1.71
3266.74,1.7
3268.74,1.69
3270.74,1.69
3272.74,1.68
3274.74,1.68
3276.74,1.68
3278.74,1.68
3279.74,1.67
3281.74,1.67
3284.74,1.67
3286.74,1.66
3288.74,1.65
3290.74,1.65
3292.74,1.65
3294.74,1.64
3296.74,1.64
3298.74,1.64
3300.74,1.64
3302.74,1.64
3304.74,1.64
3306.74,1.63
3308.74,1.62
3310.74,1.62
3312.74,1.61
3314.74,1.61
3316.74,1.61
3318.74,1.61
3320.74,1.61
3321.74,1.61
3323.74,1.61
3326.74,1.6
3328.74,1.59
3330.74,1.59
3332.74,1.59
3334.74,1.59
3336.74,1.59
3338.74,1.59
3340.74,1.59
3342.74,1.59
3344.74,1.58
3346.74,1.58
3348.74,1.57
3350.74,1.57
3352.74,1.57
3354.74,1.57
3356.74,1.57
3358.74,1.57
3360.74,1.57
3362.74,1.57
3364.74,1.57
3365.74,1.56
3367.74,1.55
3370.74,1.55
3372.74,1.55
3374.74,1.55
3376.74,1.55
3378.74,1.55
3380.74,1.55
3382.74,1.55
3384.74,1.55
3386.74,1.55
3388.74,1.54
3390.74,1.54
3392.74,1.54
3394.74,1.54
3396.74,1.54
3398.74,1.54
3400.74,1.54
3402.74,1.54
3404.74,1.54
3406.74,1.54
3407.74,1.53
3409.74,1.53
3412.74,1.53
3414.74,1.53
3416.74,1.53
3418.74,1.53
3420.74,1.53
3422.74,1.53
3424.74,1.53
3426.74,1.53
3428.74,1.52
3430.74,1.52
3432.74,1.52
3434.74,1.52
3436.74,1.52
3438.74,1.52
3440.74,1.52
3442.74,1.52
3444.74,1.52
3446.74,1.52
3448.74,1.51
3449.74,1.51
3451.74,1.51
3454.74,1.51
3456.74,1.51
3458.74,1.51
3460.74,1.51
3462.74,1.52
3464.74,1.51
3466.74,1.51
3468.74,1.51
3470.74,1.5
3472.74,1.5
3474.74,1.5
3476.74,1.51
3478.74,1.51
3480.74,1.51
3482.74,1.51
3484.74,1.51
3486.74,1.51
3488.74,1.5
3490.74,1.5
3492.74,1.5
3493.74,1.5
3495.74,1.5
3498.74,1.5
3500.74,1.51
3502.74,1.51
3504.74,1.5
3506.74,1.5
3508.74,1.5
3510.74,1.49
3512.74,1.5
3514.74,1.5
3516.74,1.5
3518.74,1.5
3520.74,1.5
3522.74,1.5
3524.74,1.5
3526.74,1.5
3528.74,1.49
3530.74,1.49
3532.74,1.49
3534.74,1.49
3536.74,1.49
3537.74,1.5
3540.74,1.5
3542.74,1.5
3544.74,1.5
3546.74,1.5
3548.74,1.49
3550.74,1.49
3552.74,1.49
3554.74,1.49
3556.74,1.49
3558.74,1.5
3560.74,1.5
3562.74,1.51
3564.74,1.51
3566.74,1.51
3568.74,1.5
3570.74,1.49
3572.74,1.49
3574.74,1.51
3576.74,1.56
3578.74,2.03
3579.74,2.74
3582.74,3.19
3584.74,3.3
3586.74,3.3
3588.74,3.3
3590.74,3.3
3592.74,3.3
3594.74,3.3
3596.74,3.3
3598.74,3.3
3600.74,3.3
3602.74,3.3
3604.74,3.3
3606.74,3.3
3608.74,3.3
3610.74,3.3
3612.74,3.3
3614.74,3.3
3616.74,3.3
3618.74,3.3
3620.74,3.3
3622.74,3.3
3623.74,3.3
3626.74,3.3
3628.74,3.3
3630.74,3.3
3632.74,3.3
3634.74,3.3
3636.74,3.3
3638.74,3.3
3640.74,3.3
3642.74,3.3
3644.74,3.3
3646.74,3.3
3648.74,3.3
3650.74,3.3
3652.74,3.3
3654.74,3.3
3656.74,3.3
3658.74,3.3
3660.74,3.3
3662.74,3.3
3664.74,3.3
3665.74,3.3
3668.74,3.3
3670.74,3.3
3672.74,3.3
3674.74,3.3
3676.74,3.3
3678.74,3.3
3680.74,3.3
3682.74,3.3
3684.74,3.3
3686.74,3.3
3688.74,3.3
3690.74,3.23
3692.74,3.3
3694.74,3.3
3696.74,3.3
3698.74,3.3
3700.74,3.3
3702.74,3.3
3704.74,3.3
3706.74,3.25
3707.74,2.73
3710.74,2.48
3712.74,2.42
3714.74,2.45
3716.74,2.44
3718.74,2.78
3720.74,2.55
3722.74,2.63
3724.74,2.61
3726.74,2.54
3728.74,2.47
3730.74,2.28
3732.74,2.21
3734.74,2.01
3736.74,2.06
3738.74,2.22
3740.74,2.01
3742.74,1.94
3744.74,1.81
3746.74,1.61
3748.74,1.12
3750.74,0.75
3751.74,0.63
3754.74,0.59
3756.74,0.54
3758.74,0.34
3760.74,0.16
3762.74,0.08
3764.74,0.0
3766.74,0.0
3768.74,0.0
3770.74,0.0
3772.74,0.0
3774.74,0.0
3776.74,0.0
3778.74,0.0
3780.74,0.0
3782.74,0.0
3784.74,0.0
3786.74,0.0
3788.74,0.0
3790.74,0.0
3792.74,0.0
3793.74,0.0
3796.74,0.0
3798.74,0.0
3800.74,0.0
3802.74,0.0
3804.74,0.0
3806.74,0.0
3808.74,0.0
3810.74,0.0
3812.74,0.0
3814.74,0.0
3816.74,0.0
3818.74,0.0
3820.74,0.0
3822.74,0.0
3824.74,0.0
3826.74,0.0
3828.74,0.0
3830.74,0.0
3832.74,0.0
3834.74,0.0
3836.74,0.0
3838.74,0.0
3840.74,0.0
3842.74,0.0
3844.74,0.0
3846.74,0.0
3848.74,0.0
3850.74,0.0
3852.74,0.0
3854.74,0.0
3856.74,0.0
3858.74,0.0
3860.74,0.0
3862.74,0.0
3864.74,0.0
3866.74,0.0
3868.74,0.0
3870.74,0.0
3872.74,0.0
3874.74,0.0
3876.74,0.0
3878.74,0.0
3879.74,0.0
3882.74,0.0
3884.74,0.0
3886.74,0.0
3888.74,0.0
3890.74,0.0
3892.74,0.0
3894.74,0.0
3896.74,0.0
3898.74,0.0
3900.74,0.0
3902.74,0.0
3904.74,0.0
3906.74,0.0
3908.74,0.0
3910.74,0.0
3912.74,0.0
3914.74,0.0
3916.74,0.0
3918.74,0.0
3920.74,0.0
3922.74,0.0
3924.74,0.0
3926.74,0.0
3928.74,0.0
3930.74,0.0
3932.74,0.0
3934.74,0.0
3936.74,0.0
3938.74,0.0
3940.74,0.0
3942.74,0.0
3944.74,0.0
3946.74,0.0
3948.74,0.0
3950.74,0.0
3952.74,0.0
3954.74,0.0
3956.74,0.0
3958.74,0.0
3960.74,0.06
3962.74,0.1
3964.74,0.19
3966.74,0.31
3968.74,0.32
3970.74,0.34
3972.74,0.46
3974.74,0.59
3976.74,0.73
3978.74,0.85
3980.74,0.99
3982.74,1.09
3984.74,1.16
3986.74,1.23
3988.74,1.3
3990.74,1.37
3992.74,1.45
3994.74,1.51
3996.74,1.57
3998.74,1.64
4000.74,1.69
4002.74,1.74
4004.74,1.78
4006.74,1.81
4009.74,1.85
4010.74,1.87
4012.74,1.9
4014.74,1.93
4016.74,1.96
4018.74,1.98
4020.74,2.0
4022.74,2.02
4024.74,2.03
4026.74,2.04
4028.74,2.05
4030.74,2.06
4032.74,2.06
4034.74,2.07
4036.74,2.08
4038.74,2.09
4040.74,2.09
4042.74,2.1
4044.74,2.09
4046.74,2.09
4048.74,2.09
4050.74,2.09
4053.74,2.08
4054.74,2.08
4056.74,2.08
4058.74,2.08
4060.74,2.08
4062.74,2.07
4064.74,2.07
4066.74,2.06
4068.74,2.05
4070.74,2.04
4072.74,2.04
4074.74,2.03
4076.74,2.03
4078.74,2.02
4080.74,2.02
4082.74,2.01
4084.74,2.0
4086.74,1.99
4088.74,1.98
4090.74,1.97
4092.74,1.96
4095.74,1.96
4096.74,1.95
4098.74,1.95
4100.74,1.94
4102.74,1.94
4104.74,1.93
4106.74,1.92
4108.74,1.91
4110.74,1.9
4112.74,1.89
4114.74,1.89
4116.74,1.88
4118.74,1.87
4120.74,1.87
4122.74,1.86
4124.74,1.85
4126.74,1.85
4128.74,1.84
4130.74,1.83
4132.74,1.82
4134.74,1.82
4137.74,1.81
4139.74,1.81
4140.74,1.8
4142.74,1.8
4144.74,1.79
4146.74,1.78
4148.74,1.77
4150.74,1.76
4152.74,1.76
4154.74,1.75
4156.74,1.75
4158.74,1.75
4160.74,1.75
4162.74,1.74
4164.74,1.73
4166.74,1.73
4168.74,1.72
4170.74,1.71
4172.74,1.71
4174.74,1.7
4176.74,1.7
4178.74,1.7
4181.74,1.7
4182.74,1.69
4184.74,1.69
4186.74,1.68
4188.74,1.67
4190.74,1.66
4192.74,1.66
4194.74,1.66
4196.74,1.66
4198.74,1.66
4200.74,1.65
4202.74,1.65
4204.74,1.65
4206.74,1.64
4208.74,1.63
4210.74,1.63
4212.74,1.63
4214.74,1.63
4216.74,1.62
4218.74,1.62
4220.74,1.62
4223.74,1.62
4225.74,1.62
4226.74,1.61
4228.74,1.6
4230.74,1.6
4232.74,1.6
4234.74,1.6
4236.74,1.6
4238.74,1.6
4240.74,1.59
4242.74,1.59
4244.74,1.59
4246.74,1.58
4248.74,1.58
4250.74,1.57
4252.74,1.57
4254.74,1.57
4256.74,1.57
4258.74,1.57
4260.74,1.57
4262.74,1.57
4265.74,1.57
4267.74,1.56
4268.74,1.56
4270.74,1.55
4272.74,1.55
4274.74,1.55
4276.74,1.55
4278.74,1.55
4280.74,1.55
4282.74,1.55
4284.74,1.55
4286.74,1.55
4288.74,1.54
4290.74,1.54
4292.74,1.54
4294.74,1.54
4296.74,1.54
4298.74,1.54
4300.74,1.54
4302.74,1.54
4304.74,1.54
4306.74,1.54
4309.74,1.53
4311.74,1.53
4312.74,1.53
4314.74,1.53
4316.74,1.53
4318.74,1.53
4320.74,1.53
4322.74,1.53
4324.74,1.53
4326.74,1.52
4328.74,1.52
4330.74,1.52
4332.74,1.52
4334.74,1.52
4336.74,1.52
4338.74,1.52
4340.74,1.52
4342.74,1.52
4344.74,1.52
4346.74,1.52
4348.74,1.51
4351.74,1.51
4353.74,1.51
4354.74,1.51
4356.74,1.51
4358.74,1.51
4360.74,1.51
4362.74,1.51
4364.74,1.51
4366.74,1.51
4368.74,1.5
4370.74,1.5
4372.74,1.5
4374.74,1.5
4376.74,1.5
4378.74,1.51
4380.74,1.51
4382.74,1.51
4384.74,1.51
4386.74,1.5
4388.74,1.5
4390.74,1.5
4393.74,1.5
4395.74,1.5
4397.74,1.5
4398.74,1.5
4400.74,1.5
4402.74,1.5
4404.74,1.5
4406.74,1.5
4408.74,1.49
4410.74,1.49
4412.74,1.49
4414.74,1.49
4416.74,1.49
4418.74,1.5
4420.74,1.5
4422.74,1.5
4424.74,1.5
4426.74,1.49
4428.74,1.49
4430.74,1.49
4432.74,1.49
4434.74,1.49
4437.74,1.49
4439.74,1.49
4440.74,1.5
4442.74,1.5
4444.74,1.49
4446.74,1.49
4448.74,1.49
4450.74,1.48
4452.74,1.49
4454.74,1.49
4456.74,1.49
4458.74,1.49
4460.74,1.49
4462.74,1.49
4464.74,1.49
4466.74,1.49
4468.74,1.48
4470.74,1.48
4472.74,1.48
4474.74,1.49
4476.74,1.49
4479.74,1.49
4481.74,1.49
4483.74,1.49
4484.74,1.49
4486.74,1.49
4488.74,1.48
4490.74,1.48
4492.74,1.48
4494.74,1.48
4496.74,1.48
4498.74,1.49
4500.74,1.49
4502.74,1.49
4504.74,1.49
4506.74,1.48
4508.74,1.48
4510.74,1.48
4512.74,1.48
4514.74,1.48
4516.74,1.48
4518.74,1.48
4521.74,1.49
4523.74,1.49
4525.74,1.49
4527.74,1.48
4528.74,1.48
4530.74,1.48
4532.74,1.48
4534.74,1.48
4536.74,1.48
4538.74,1.48
4540.74,1.49
4542.74,1.49
4544.74,1.49
4546.74,1.48
4548.74,1.48
4550.74,1.48
4552.74,1.48
4554.74,1.48
4556.74,1.48
4558.74,1.48
4560.74,1.49
4562.74,1.49
4565.74,1.48
4567.74,1.48
4569.74,1.48
4570.74,1.48
4572.74,1.48
4574.74,1.48
4576.74,1.48
4578.74,1.48
4580.74,1.48
4582.74,1.49
4584.74,1.48
4586.74,1.48
4588.74,1.48
4590.74,1.48
4592.74,1.48
4594.74,1.48
4596.74,1.48
4598.74,1.48
4600.74,1.48
4602.74,1.49
4604.74,1.48
4607.74,1.48
4609.74,1.47
4611.74,1.47
4613.74,1.48
4614.74,1.48
4616.74,1.48
4618.74,1.48
4620.74,1.48
4622.74,1.49
4624.74,1.48
4626.74,1.48
4628.74,1.48
4630.74,1.47
4632.74,1.48
4634.74,1.48
4636.74,1.48
4638.74,1.48
4640.74,1.48
4642.74,1.48
4644.74,1.48
4646.74,1.48
4649.74,1.47
4651.74,1.47
4653.74,1.48
4655.74,1.48
4657.74,1.48
4658.74,1.48
4660.74,1.49
4662.74,1.49
4664.74,1.51
4666.74,2.04
4668.74,3.3
4670.74,3.3
4672.74,3.3
4674.74,3.3
4676.74,3.3
4678.74,3.3
4680.74,3.3
4682.74,3.3
4684.74,3.3
4686.74,3.3
4688.74,3.3
4690.74,3.3
4693.74,3.3
4695.74,3.3
4697.74,3.3
4699.74,3.3
4701.74,3.3
4702.74,3.3
4704.74,3.3
4706.74,3.3
4708.74,3.3
4710.74,3.3
4712.74,3.3
4714.74,3.3
4716.74,3.3
4718.74,3.3
4720.74,3.3
4722.74,3.3
4724.74,3.3
4726.74,3.3
4728.74,3.3
4730.74,3.3
4732.74,3.3
4735.74,3.3
4737.74,3.3
4739.74,3.3
4741.74,3.3
4743.74,3.3
4745.74,3.3
4746.74,3.3
4748.74,3.3
4750.74,3.3
4752.74,3.3
4754.74,3.3
4756.74,3.3
4758.74,3.3
4760.74,3.3
4762.74,3.3
4764.74,3.3
4766.74,3.3
4768.74,3.3
4770.74,3.24
4772.74,2.88
4774.74,2.18
4777.74,1.58
4779.74,1.03
4781.74,0.53
4783.74,0.22
4785.74,0.0
4787.74,0.0
4789.74,0.0
4790.74,0.0
4792.74,0.0
4794.74,0.0
4796.74,0.0
4798.74,0.0
4800.74,0.0
4802.74,0.0
4804.74,0.0
4806.74,0.0
4808.74,0.0
4810.74,0.0
4812.74,0.0
4814.74,0.0
4816.74,0.0
4818.74,0.0
4821.74,0.0
4823.74,0.0
4825.74,0.0
4827.74,0.0
4829.74,0.0
4831.74,0.0
4832.74,0.0
4834.74,0.0
4836.74,0.0
4838.74,0.0
4840.74,0.0
4842.74,0.0
4844.74,0.0
4846.74,0.0
4848.74,0.0
4850.74,0.0
4852.74,0.0
4854.74,0.0
4856.74,0.0
4858.74,0.0
4860.74,0.0
4863.74,0.0
4865.74,0.0
4867.74,0.0
4869.74,0.0
4871.74,0.0
4873.74,0.0
4875.74,0.0
4876.74,0.0
4878.74,0.0
4880.74,0.0
4882.74,0.0
4884.74,0.0
4886.74,0.0
4888.74,0.0
4890.74,0.0
4892.74,0.0
4894.74,0.0
4896.74,0.0
4898.74,0.0
4900.74,0.0
4902.74,0.0
4905.74,0.0
4907.74,0.0
4909.74,0.0
4911.74,0.0
4913.74,0.0
4915.74,0.0
4917.74,0.0
4919.74,0.0
4920.74,0.0
4922.74,0.0
4924.74,0.0
4926.74,0.0
4928.74,0.0
4930.74,0.0
4932.74,0.0
4934.74,0.0
4936.74,0.0
4938.74,0.0
4940.74,0.0
4942.74,0.0
4944.74,0.0
4946.74,0.0
4949.74,0.0
4951.74,0.0
4953.74,0.0
4955.74,0.0
4957.74,0.0
4959.74,0.0
4961.74,0.0
4962.74,0.0
4964.74,0.0
4966.74,0.0
4968.74,0.0
4970.74,0.0
4972.74,0.0
4974.74,0.0
4976.74,0.0
4978.74,0.0
4980.74,0.0
4982.74,0.0
4984.74,0.0
4986.74,0.0
4988.74,0.0
4991.74,0.0
4993.74,0.0
4995.74,0.0
4997.74,0.0
4999.74,0.0
5001.74,0.0
5003.74,0.0
5005.74,0.0
5006.74,0.0
5008.74,0.0
5010.74,0.0
5012.74,0.0
5014.74,0.0
5016.74,0.0
5018.74,0.0
5020.74,0.0
5022.74,0.0
5024.74,0.0
5026.74,0.0
5028.74,0.0
5030.74,0.0
5033.74,0.0
5035.74,0.0
5037.74,0.0
5039.74,0.0
5041.74,0.0
5043.74,0.0
5045.74,0.0
5047.74,0.0
5049.74,0.0
5050.74,0.0
5052.74,0.0
5054.74,0.0
5056.74,0.0
5058.74,0.0
5060.74,0.07
5062.74,0.32
5064.74,0.43
5066.74,0.44
5068.74,0.45
5070.74,0.62
5072.74,0.82
5074.74,1.0
5077.74,1.18
5079.74,1.34
5081.74,1.49
5083.74,1.63
5085.74,1.76
5087.74,1.87
5089.74,1.97
5091.74,2.07
5093.74,2.16
5094.74,2.24
5096.74,2.32
5098.74,2.39
5100.74,2.45
5102.74,2.51
5104.74,2.55
5106.74,2.59
5108.74,2.63
5110.74,2.66
5112.74,2.69
5114.74,2.72
5116.74,2.75
5119.74,2.77
5121.74,2.79
5123.74,2.8
5125.74,2.81
5127.74,2.82
5129.74,2.82
5131.74,2.82
5133.74,2.82
5135.74,2.83
5137.74,2.83
5138.74,2.83
5140.74,2.82
5142.74,2.82
5144.74,2.81
5146.74,2.8
5148.74,2.78
5150.74,2.77
5152.74,2.76
5154.74,2.75
5156.74,2.74
5158.74,2.73
5161.74,2.72
5163.74,2.71
5165.74,2.69
5167.74,2.67
5169.74,2.65
5171.74,2.64
5173.74,2.63
5175.74,2.61
5177.74,2.6
5179.74,2.58
5180.74,2.57
5182.74,2.55
5184.74,2.54
5186.74,2.52
5188.74,2.5
5190.74,2.48
5192.74,2.46
5194.74,2.45
5196.74,2.44
5198.74,2.42
5200.74,2.41
5202.74,2.39
5205.74,2.37
5207.74,2.35
5209.74,2.34
5211.74,2.32
5213.74,2.31
5215.74,2.29
5217.74,2.28
5219.74,2.27
5221.74,2.25
5223.74,2.24
5224.74,2.23
5226.74,2.21
5228.74,2.19
5230.74,2.18
5232.74,2.16
5234.74,2.15
5236.74,2.14
5238.74,2.13
5240.74,2.12
5242.74,2.11
5244.74,2.1
5247.74,2.08
5249.74,2.06
5251.74,2.05
5253.74,2.04
5255.74,2.03
5257.74,2.02
5259.74,2.02
5261.74,2.01
5263.74,2.0
5265.74,1.98
5266.74,1.97
5268.74,1.95
5270.74,1.95
5272.74,1.94
5274.74,1.93
5276.74,1.92
5278.74,1.92
5280.74,1.91
5282.74,1.9
5284.74,1.89
5286.74,1.88
5289.74,1.87
5291.74,1.86
5293.74,1.85
5295.74,1.85
5297.74,1.84
5299.74,1.83
5301.74,1.83
5303.74,1.82
5305.74,1.81
5307.74,1.8
5309.74,1.79
5310.74,1.79
5312.74,1.78
5314.74,1.78
5316.74,1.77
5318.74,1.77
5320.74,1.76
5322.74,1.76
5324.74,1.75
5326.74,1.74
5328.74,1.73
5330.74,1.73
5333.74,1.72
5335.74,1.72
5337.74,1.72
5339.74,1.71
5341.74,1.71
5343.74,1.71
5345.74,1.7
5347.74,1.69
5349.74,1.68
5351.74,1.68
5352.74,1.68
5354.74,1.67
5356.74,1.67
5358.74,1.67
5360.74,1.67
5362.74,1.66
5364.74,1.66
5366.74,1.65
5368.74,1.65
5370.74,1.64
5372.74,1.64
5375.74,1.64
5377.74,1.64
5379.74,1.63
5381.74,1.63
5383.74,1.63
5385.74,1.63
5387.74,1.62
5389.74,1.61
5391.74,1.61
5393.74,1.61
5395.74,1.61
5396.74,1.61
5398.74,1.61
5400.74,1.6
5402.74,1.6
5404.74,1.6
5406.74,1.59
5408.74,1.58
5410.74,1.58
5412.74,1.58
5414.74,1.58
5417.74,1.58
5419.74,1.58
5421.74,1.58
5423.74,1.58
5425.74,1.57
5427.74,1.57
5429.74,1.56
5431.74,1.56
5433.74,1.56
5435.74,1.56
5437.74,1.56
5438.74,1.56
5440.74,1.56
5442.74,1.56
5444.74,1.56
5446.74,1.55
5448.74,1.55
5450.74,1.55
5452.74,1.55
5454.74,1.55
5456.74,1.55
5458.74,1.55
5461.74,1.55
5463.74,1.55
5465.74,1.55
5467.74,1.54
5469.74,1.54
5471.74,1.53
5473.74,1.53
5475.74,1.53
5477.74,1.53
5479.74,1.54
5481.74,1.54
5482.74,1.54
5484.74,1.53
5486.74,1.53
5488.74,1.52
5490.74,1.52
5492.74,1.52
5494.74,1.52
5496.74,1.52
5498.74,1.53
5500.74,1.53
5503.74,1.53
5505.74,1.52
5507.74,1.52
5509.74,1.51
5511.74,1.51
5513.74,1.51
5515.74,1.51
5517.74,1.52
5519.74,1.52
5521.74,1.52
5523.74,1.52
5524.74,1.51
5526.74,1.51
5528.74,1.51
5530.74,1.51
5532.74,1.51
5534.74,1.51
5536.74,1.51
5538.74,1.51
5540.74,1.51
5542.74,1.51
5545.74,1.51
5547.74,1.51
5549.74,1.5
5551.74,1.5
5553.74,1.5
5555.74,1.5
5557.74,1.5
5559.74,1.51
5561.74,1.51
5563.74,1.51
5565.74,1.5
5567.74,1.5
5568.74,1.5
5570.74,1.49
5572.74,1.5
5574.74,1.5
5576.74,1.5
5578.74,1.5
5580.74,1.5
5582.74,1.5
5584.74,1.5
5586.74,1.5
5589.74,1.49
5591.74,1.49
5593.74,1.49
5595.74,1.49
5597.74,1.49
5599.74,1.5
5601.74,1.5
5603.74,1.5
5605.74,1.5
5607.74,1.49
5609.74,1.49
5611.74,1.49
5612.74,1.49
5614.74,1.49
5616.74,1.49
5618.74,1.49
5620.74,1.5
5622.74,1.5
5624.74,1.49
5626.74,1.49
5628.74,1.48
5631.74,1.48
5633.74,1.49
5635.74,1.49
5637.74,1.49
5639.74,1.49
5641.74,1.49
5643.74,1.49
5645.74,1.49
5647.74,1.49
5649.74,1.48
5651.74,1.48
5653.74,1.48
5654.74,1.48
5656.74,1.49
5658.74,1.49
5660.74,1.49
5662.74,1.49
5664.74,1.49
5666.74,1.49
5668.74,1.48
5670.74,1.48
5673.74,1.48
5675.74,1.48
5677.74,1.49
5679.74,1.49
5681.74,1.49
5683.74,1.49
5685.74,1.49
5687.74,1.48
5689.74,1.48
5691.74,1.48
5693.74,1.48
5695.74,1.48
5697.74,1.48
5698.74,1.49
5700.74,1.49
5702.74,1.49
5704.74,1.49
5706.74,1.48
5708.74,1.48
5710.74,1.48
5712.74,1.48
5714.74,1.48
5717.74,1.48
5719.74,1.49
5721.74,1.49
5723.74,1.49
5725.74,1.48
5727.74,1.48
5729.74,1.48
5731.74,1.48
5733.74,1.48
5735.74,1.48
5737.74,1.48
5739.74,1.48
5740.74,1.49
5742.74,1.49
5744.74,1.48
5746.74,1.48
5748.74,1.48
5750.74,1.48
5752.74,1.48
5754.74,1.48
5756.74,1.48
5759.74,1.48
5761.74,1.49
5763.74,1.49
5765.74,1.48
5767.74,1.48
5769.74,1.48
5771.74,1.48
5773.74,1.48
5775.74,1.48
5777.74,1.48
5779.74,1.48
5781.74,1.49
5783.74,1.49
5784.74,1.48
5786.74,1.48
5788.74,1.47
5790.74,1.47
5792.74,1.48
5794.74,1.48
5796.74,1.48
5798.74,1.48
5801.74,1.48
5803.74,1.48
5805.74,1.48
5807.74,1.48
5809.74,1.47
5811.74,1.47
5813.74,1.48
5815.74,1.48
5817.74,1.48
5819.74,1.48
5821.74,1.48
5823.74,1.48
5825.74,1.48
5827.74,1.48
5828.74,1.47
5830.74,1.47
5832.74,1.48
5834.74,1.48
5836.74,1.48
5838.74,1.48
5840.74,1.48
5842.74,1.48
5845.74,1.48
5847.74,1.48
5849.74,1.47
5851.74,1.47
5853.74,1.48
5855.74,1.48
5857.74,1.48
5859.74,1.48
5861.74,1.48
5863.74,1.48
5865.74,1.48
5867.74,1.48
5869.74,1.47
5870.74,1.47
5872.74,1.47
5874.74,1.48
5876.74,1.48
5878.74,1.48
5880.74,1.48
5882.74,1.48
5884.74,1.48
5887.74,1.48
5889.74,1.47
5891.74,1.47
5893.74,1.48
5895.74,1.48
5897.74,1.48
5899.74,1.48
5901.74,1.48
5903.74,1.48
5905.74,1.48
5907.74,1.48
5909.74,1.47
5911.74,1.47
5913.74,1.47
5914.74,1.48
5916.74,1.48
5918.74,1.48
5920.74,1.48
5922.74,1.48
5924.74,1.48
5926.74,1.48
5929.74,1.47
5931.74,1.47
5933.74,1.47
5935.74,1.48
5937.74,1.48
5939.74,1.48
5941.74,1.48
5943.74,1.48
5945.74,1.48
5947.74,1.48
5949.74,1.47
5951.74,1.47
5953.74,1.47
5955.74,1.48
5956.74,1.48
5958.74,1.48
5960.74,1.48
5962.74,1.48
5964.74,1.48
5966.74,1.48
5968.74,1.47
5970.74,1.47
5973.74,1.47
5975.74,1.48
5977.74,1.48
5979.74,1.48
5981.74,1.48
5983.74,1.48
5985.74,1.48
5987.74,1.48
5989.74,1.47
5991.74,1.47
5993.74,1.47
5995.74,1.48
5997.74,1.48
5999.74,1.48
6000.74,1.48
6002.74,1.48
6004.74,1.48
6006.74,1.48
6008.74,1.47
6010.74,1.47
6012.74,1.47
6015.74,1.48
6017.74,1.48
6019.74,1.48
6021.74,1.48
6023.74,1.48
6025.74,1.48
6027.74,1.48
6029.74,1.47
6031.74,1.47
6033.74,1.47
6035.74,1.48
6037.74,1.48
6039.74,1.48
6041.74,1.48
6043.74,1.48
6044.74,1.48
6046.74,1.48
6048.74,1.47
6050.74,1.47
6052.74,1.47
6054.74,1.47
6057.74,1.48
6059.74,1.48
6061.74,1.48
6063.74,1.48
6065.74,1.48
6067.74,1.48
6069.74,1.47
6071.74,1.47
6073.74,1.47
6075.74,1.47
6077.74,1.48
6079.74,1.48
6081.74,1.48
6083.74,1.48
6085.74,1.48
6087.74,1.48
6088.74,1.47
6090.74,1.47
6092.74,1.47
6094.74,1.48
6096.74,1.48
6098.74,1.48
6101.74,1.48
6103.74,1.48
6105.74,1.48
6107.74,1.48
6109.74,1.47
6111.74,1.47
6113.74,1.47
6115.74,1.47
6117.74,1.48
6119.74,1.48
6121.74,1.48
6123.74,1.48
6125.74,1.48
6127.74,1.48
6129.74,1.47
6130.74,1.47
6132.74,1.47
6134.74,1.48
6136.74,1.48
6138.74,1.48
6140.74,1.48
6143.74,1.48
6145.74,1.48
6147.74,1.48
6149.74,1.47
6151.74,1.47
6153.74,1.47
6155.74,1.48
6157.74,1.48
6159.74,1.48
6161.74,1.48
6163.74,1.48
6165.74,1.48
6167.74,1.48
6169.74,1.48
6171.74,1.48
6173.74,1.5
6174.74,1.72
6176.74,2.61
6178.74,3.3
6180.74,3.3
6182.74,3.3
6185.74,3.3
6187.74,3.3
6189.74,3.3
6191.74,3.3
6193.74,3.3
6195.74,3.3
6197.74,3.3
6199.74,3.3
6201.74,3.3
6203.74,3.3
6205.74,3.3
6207.74,3.3
6209.74,3.3
6211.74,3.3
6213.74,3.3
6215.74,3.3
6217.74,3.3
6218.74,3.3
6220.74,3.3
6222.74,3.3
6224.74,3.3
6226.74,3.3
6229.74,3.3
6231.74,3.3
6233.74,3.3
6235.74,3.3
6237.74,3.3
6239.74,3.3
6241.74,3.3
6243.74,3.3
6245.74,3.3
6247.74,3.3
6249.74,3.3
6251.74,3.3
6253.74,3.3
6255.74,3.3
6257.74,3.3
6259.74,3.3
6261.74,3.3
6262.74,3.3
6264.74,3.3
6266.74,3.3
6268.74,3.3
6271.74,3.3
6273.74,3.3
6275.74,3.3
6277.74,3.3
6279.74,3.3
6281.74,3.3
6283.74,3.3
6285.74,2.93
6287.74,2.31
6289.74,1.58
6291.74,1.43
6293.74,1.17
6295.74,1.09
6297.74,1.06
6299.74,0.84
6301.74,0.53
6303.74,0.22
6305.74,0.0
6306.74,0.0
6308.74,0.0
6310.74,0.0
6313.74,0.0
6315.74,0.0
6317.74,0.0
6319.74,0.0
6321.74,0.0
6323.74,0.0
6325.74,0.0
6327.74,0.0
6329.74,0.0
6331.74,0.0
6333.74,0.0
6335.74,0.0
6337.74,0.0
6339.74,0.0
6341.74,0.0
6343.74,0.0
6345.74,0.0
6347.74,0.0
6349.74,0.0
6350.74,0.0
6352.74,0.0
6354.74,0.0
6357.74,0.0
6359.74,0.0
6361.74,0.0
6363.74,0.0
6365.74,0.0
6367.74,0.0
6369.74,0.0
6371.74,0.0
6373.74,0.0
6375.74,0.0
6377.74,0.0
6379.74,0.0
6381.74,0.0
6383.74,0.0
6385.74,0.0
6387.74,0.0
6389.74,0.0
6391.74,0.0
6393.74,0.0
6394.74,0.0
6396.74,0.0
6399.74,0.0
6401.74,0.0
6403.74,0.0
6405.74,0.0
6407.74,0.0
6409.74,0.0
6411.74,0.0
6413.74,0.0
6415.74,0.0
6417.74,0.79
6419.74,1.48
6421.74,1.63
6423.74,1.74
6425.74,1.45
6427.74,1.03
6429.74,0.58
6431.74,0.56
6433.74,0.5
6435.74,0.55
6436.74,0.81
6438.74,1.08
6441.74,1.17
6443.74,1.22
6445.74,0.94
6447.74,0.51
6449.74,0.25
6451.74,0.23
6453.74,0.0
6455.74,0.0
6457.74,0.11
6459.74,0.0
6461.74,0.0
6463.74,0.11
6465.74,0.77
6467.74,1.21
6469.74,0.98
6471.74,1.05
6473.74,1.27
6475.74,1.74
6477.74,2.05
6478.74,2.59
6480.74,2.97
6482.74,3.05
6485.74,2.79
6487.74,2.28
6489.74,1.88
6491.74,1.96
6493.74,1.88
6495.74,2.28
6497.74,2.5
6499.74,2.52
6501.74,2.54
6503.74,2.26
6505.74,1.77
6507.74,1.04
6509.74,0.18
6511.74,0.0
6513.74,0.01
6515.74,0.01
6517.74,0.0
6519.74,0.0
6521.74,0.0
6522.74,0.0
6524.74,0.0
6527.74,0.0
6529.74,0.0
6531.74,0.0
6533.74,0.0
6535.74,0.0
6537.74,0.0
6539.74,0.0
6541.74,0.22
6543.74,0.25
6545.74,0.06
6547.74,0.19
6549.74,0.27
6551.74,0.52
6553.74,0.85
6555.74,1.08
6557.74,1.59
6559.74,1.97
6561.74,2.15
6563.74,2.31
6564.74,2.34
6566.74,2.06
6569.74,1.85
6571.74,2.08
6573.74,2.38
6575.74,2.84
6577.74,3.13
6579.74,3.3
6581.74,3.3
6583.74,3.3
6585.74,3.3
6587.74,3.3
6589.74,3.3
6591.74,3.3
6593.74,3.3
6595.74,3.3
6597.74,3.3
6599.74,3.3
6601.74,3.3
6603.74,3.3
6605.74,3.3
6607.74,3.3
6608.74,3.3
6610.74,3.3
6613.74,3.3
6615.74,3.3
6617.74,3.3
6619.74,3.3
6621.74,3.3
6623.74,3.29
6625.74,2.98
6627.74,2.41
6629.74,1.89
6631.74,1.66
6633.74,1.71
6635.74,1.8
6637.74,1.71
6639.74,1.7
6641.74,1.74
6643.74,1.7
6645.74,1.52
6647.74,1.25
6649.74,0.93
6650.74,1.01
6652.74,0.86
6655.74,0.78
6657.74,0.7
6659.74,0.67
6661.74,0.65
6663.74,0.61
6665.74,0.41
6667.74,0.3
6669.74,0.02
6671.74,0.0
6673.74,0.0
6675.74,0.16
6677.74,0.27
6679.74,0.46
6681.74,0.77
6683.74,0.92
6685.74,0.77
6687.74,0.0
6689.74,0.0
6691.74,0.0
6693.74,0.0
6694.74,0.0
6697.74,0.14
6699.74,0.32
6701.74,0.55
6703.74,0.62
6705.74,0.29
6707.74,0.0
6709.74,0.0
6711.74,0.0
6713.74,0.0
6715.74,0.05
6717.74,0.25
6719.74,0.43
6721.74,0.59
6723.74,0.33
6725.74,0.32
6727.74,0.0
6729.74,0.0
6731.74,0.0
6733.74,0.0
6735.74,0.0
6737.74,0.0
6738.74,0.0
6741.74,0.0
6743.74,0.0
6745.74,0.0
6747.74,0.0
6749.74,0.0
6751.74,0.0
6753.74,0.0
6755.74,0.0
6757.74,0.0
6759.74,0.0
6761.74,0.05
6763.74,0.0
6765.74,0.0
6767.74,0.0
6769.74,0.0
6771.74,0.0
6773.74,0.0
6775.74,0.0
6777.74,0.0
6779.74,0.21
6780.74,0.38
6783.74,0.63
6785.74,0.62
6787.74,0.41
6789.74,0.15
6791.74,0.28
6793.74,0.55
6795.74,0.87
6797.74,1.13
6799.74,1.33
6801.74,1.57
6803.74,1.66
6805.74,1.62
6807.74,1.32
6809.74,1.09
6811.74,1.14
6813.74,1.2
6815.74,1.46
6817.74,1.51
6819.74,1.68
6821.74,1.73
6823.74,1.78
6825.74,1.71
6827.74,1.43
6829.74,1.26
6831.74,1.49
6833.74,1.51
6835.74,1.66
6837.74,1.6
6839.74,1.8
6841.74,1.93
6843.74,1.96
6845.74,1.82
6847.74,1.71
6849.74,1.49
6851.74,1.62
6853.74,1.63
6855.74,1.83
6857.74,2.08
6859.74,2.43
6861.74,2.55
6863.74,2.63
6865.74,2.51
6866.74,2.15
6869.74,1.76
6871.74,1.67
6873.74,1.92
6875.74,2.2
6877.74,2.46
6879.74,2.7
6881.74,2.99
6883.74,3.1
6885.74,2.92
6887.74,2.56
6889.74,2.19
6891.74,2.18
6893.74,2.17
6895.74,2.24
6897.74,2.26
6899.74,2.07
6901.74,2.06
6903.74,1.79
6905.74,1.64
6907.74,1.23
6910.74,0.82
6911.74,0.86
6913.74,1.07
6915.74,1.23
6917.74,1.4
6919.74,1.43
6921.74,1.53
6923.74,1.6
6925.74,1.51
6927.74,1.14
6929.74,1.13
6931.74,1.15
6933.74,1.25
6935.74,1.46
6937.74,1.5
6939.74,1.67
6941.74,1.87
6943.74,1.84
6945.74,1.75
6947.74,1.46
6949.74,1.11
6951.74,1.17
6953.74,1.2
6955.74,1.26
6957.74,1.18
6959.74,1.42
6961.74,1.6
6963.74,1.73
6965.74,1.56
6967.74,1.3
6969.74,0.98
6971.74,0.91
6973.74,0.93
6975.74,1.02
6977.74,1.22
6979.74,1.45
6981.74,1.68
6983.74,1.87
6985.74,2.25
6987.74,1.95
6989.74,1.38
6991.74,1.15
6993.74,1.11
6996.74,1.2
6997.74,1.39
6999.74,1.58
7001.74,1.57
7003.74,1.66
7005.74,1.58
7007.74,1.25
7009.74,1.02
7011.74,1.02
7013.74,1.16
7015.74,1.42
7017.74,1.48
7019.74,1.63
7021.74,1.73
7023.74,1.87
7025.74,1.7
7027.74,1.44
7029.74,1.09
7031.74,1.04
7033.74,1.04
7035.74,1.02
7038.74,1.1
7040.74,1.44
7041.74,1.6
7043.74,1.6
7045.74,1.36
7047.74,1.31
7049.74,1.04
7051.74,1.1
7053.74,1.17
7055.74,1.28
7057.74,1.39
7059.74,1.79
7061.74,2.27
7063.74,2.47
7065.74,2.53
7067.74,2.34
7069.74,2.12
7071.74,2.11
7073.74,2.16
7075.74,2.24
7077.74,2.33
7079.74,2.49
7082.74,2.48
7083.74,2.39
7085.74,2.15
7087.74,1.59
7089.74,1.2
7091.74,1.03
7093.74,1.0
7095.74,1.2
7097.74,1.39
7099.74,1.46
7101.74,1.6
7103.74,1.53
7105.74,1.13
7107.74,0.87
7109.74,0.68
7111.74,0.64
7113.74,0.75
7115.74,0.98
7117.74,1.21
7119.74,1.38
7121.74,1.43
7124.74,1.49
7125.74,1.45
7127.74,1.16
7129.74,1.07
7131.74,1.27
7133.74,1.4
7135.74,1.34
7137.74,1.41
7139.74,1.68
7141.74,1.91
7143.74,1.83
7145.74,1.8
7147.74,1.53
7149.74,1.26
7151.74,1.36
7153.74,1.22
7155.74,1.18
7157.74,1.29
7159.74,1.54
7161.74,1.6
7163.74,1.77
7166.74,1.53
7168.74,1.33
7169.74,0.99
7171.74,0.96
7173.74,1.09
7175.74,1.25
7177.74,1.41
7179.74,1.56
7181.74,1.6
7183.74,1.61
7185.74,0.68
7187.74,0.0
7189.74,0.0
7191.74,0.0
7193.74,0.0
7195.74,0.0
7197.74,0.02
7199.74,0.54
7201.74,0.88
7203.74,0.91
7205.74,0.88
7207.74,0.62
7210.74,0.47
7212.74,0.64
7213.74,0.83
7215.74,0.95
7217.74,1.2
7219.74,1.38
7221.74,1.57
7223.74,1.46
7225.74,1.37
7227.74,1.05
7229.74,0.96
7231.74,1.1
7233.74,1.2
7235.74,1.26
7237.74,1.4
7239.74,1.38
7241.74,1.35
7243.74,1.38
7245.74,1.27
7247.74,1.02
7249.74,0.89
7252.74,0.87
7254.74,1.05
7256.74,1.28
7257.74,1.5
7259.74,1.71
7261.74,1.77
7263.74,1.8
7265.74,1.73
7267.74,1.27
7269.74,1.09
7271.74,1.05
7273.74,1.24
7275.74,1.27
7277.74,1.37
7279.74,1.71
7281.74,1.95
7283.74,1.8
7285.74,1.7
7287.74,1.6
7289.74,1.6
7291.74,1.75
7294.74,1.83
7296.74,1.82
7298.74,2.24
7299.74,2.55
7301.74,2.78
7303.74,2.74
7305.74,2.42
7307.74,2.0
7309.74,1.9
7311.74,1.91
7313.74,2.08
7315.74,2.19
7317.74,2.33
7319.74,2.41
7321.74,2.38
7323.74,2.27
7325.74,2.06
7327.74,1.79
7329.74,1.77
7331.74,1.82
7333.74,1.85
7335.74,1.85
7338.74,1.89
7340.74,2.1
7342.74,2.22
7343.74,2.06
7345.74,1.83
7347.74,1.61
7349.74,1.4
7351.74,1.26
7353.74,1.16
7355.74,1.21
7357.74,1.3
7359.74,1.62
7361.74,1.75
7363.74,1.73
7365.74,1.71
7367.74,1.54
7369.74,1.27
7371.74,1.25
7373.74,1.4
7375.74,1.45
7377.74,1.61
7380.74,1.95
7382.74,2.13
7384.74,2.24
7386.74,1.88
7387.74,1.41
7389.74,1.04
7391.74,0.92
7393.74,0.94
7395.74,1.21
7397.74,1.43
7399.74,1.73
7401.74,1.87
7403.74,1.72
7405.74,1.36
7407.74,0.93
7409.74,0.84
7411.74,0.83
7413.74,0.92
7415.74,1.09
7417.74,1.34
7419.74,1.52
7422.74,1.68
7424.74,1.65
7426.74,1.35
7428.74,1.15
7429.74,1.03
7431.74,1.06
7433.74,1.27
7435.74,1.31
7437.74,1.47
7439.74,1.73
7441.74,1.85
7443.74,1.77
7445.74,1.88
7447.74,1.57
7449.74,1.43
7451.74,1.39
7453.74,1.45
7455.74,1.47
7457.74,1.61
7459.74,1.9
7461.74,2.08
7463.74,2.07
7466.74,2.13
7468.74,1.93
7470.74,1.8
7472.74,1.76
7473.74,1.75
7475.74,1.84
7477.74,2.16
7479.74,2.37
7481.74,2.51
7483.74,2.43
7485.74,2.15
7487.74,1.8
7489.74,1.74
7491.74,1.61
7493.74,1.66
7495.74,1.81
7497.74,2.03
7499.74,2.31
7501.74,2.55
7503.74,2.46
7505.74,2.13
7508.74,1.94
7510.74,1.78
7512.74,1.66
7514.74,1.82
7516.74,1.97
7517.74,2.0
7519.74,2.22
7521.74,2.33
7523.74,2.17
7525.74,2.22
7527.74,2.09
7529.74,1.97
7531.74,2.04
7533.74,2.15
7535.74,2.06
7537.74,2.08
7539.74,2.34
7541.74,2.55
7543.74,2.44
7545.74,2.16
7547.74,1.79
7550.74,1.55
7552.74,1.42
7554.74,1.18
7556.74,0.96
7558.74,1.3
7560.74,1.63
7561.74,1.64
7563.74,1.66
7565.74,1.4
7567.74,1.09
7569.74,0.85
7571.74,0.74
7573.74,0.62
7575.74,0.84
7577.74,0.96
7579.74,1.23
7581.74,1.45
7583.74,1.54
7585.74,1.18
7587.74,0.91
7589.74,0.79
7591.74,0.73
7594.74,0.88
7596.74,1.21
7598.74,1.36
7600.74,1.6
7602.74,1.78
7604.74,1.69
7605.74,1.42
7607.74,1.22
7609.74,1.15
7611.74,1.1
7613.74,1.37
7615.74,1.58
7617.74,1.84
7619.74,2.07
7621.74,2.06
7623.74,2.06
7625.74,1.97
7627.74,1.69
7629.74,1.55
7631.74,1.46
7633.74,1.58
7636.74,1.45
7638.74,1.54
7640.74,1.8
7642.74,1.74
7644.74,1.69
7646.74,1.51
7648.74,1.11
7649.74,0.96
7651.74,0.87
7653.74,0.75
7655.74,0.75
7657.74,0.88
7659.74,1.18
7661.74,1.32
7663.74,1.18
7665.74,1.15
7667.74,0.89
7669.74,0.71
7671.74,0.65
7673.74,0.71
7675.74,0.69
7678.74,0.7
7680.74,0.99
7682.74,1.16
7684.74,1.09
7686.74,0.87
7688.74,0.85
7690.74,0.83
7692.74,0.89
7693.74,0.97
7695.74,1.05
7697.74,1.12
7699.74,1.24
7701.74,1.4
7703.74,1.4
7705.74,1.37
7707.74,1.37
7709.74,1.4
7711.74,1.44
7713.74,1.48
7715.74,1.52
7717.74,1.56
7719.74,1.61
7722.74,1.63
7724.74,1.65
7726.74,1.67
7728.74,1.68
7730.74,1.69
7732.74,1.71
7734.74,1.73
7735.74,1.75
7737.74,1.76
7739.74,1.78
7741.74,1.8
7743.74,1.8
7745.74,1.8
7747.74,1.8
7749.74,1.8
7751.74,1.8
7753.74,1.81
7755.74,1.82
7757.74,1.82
7759.74,1.83
7761.74,1.84
7764.74,1.84
7766.74,1.83
7768.74,1.82
7770.74,1.82
7772.74,1.82
7774.74,1.82
7776.74,1.82
7777.74,1.82
7779.74,1.82
7781.74,1.83
7783.74,1.82
7785.74,1.82
7787.74,1.8
7789.74,1.8
7791.74,1.79
7793.74,1.79
7795.74,1.79
7797.74,1.8
7799.74,1.83
7801.74,2.03
7803.74,2.39
7806.74,2.66
7808.74,2.35
7810.74,2.37
7812.74,2.4
7814.74,2.33
7816.74,2.31
7818.74,2.6
7820.74,2.66
7821.74,2.64
7823.74,2.57
7825.74,2.36
7827.74,2.09
7829.74,1.96
7831.74,1.91
7833.74,2.04
7835.74,2.06
7837.74,2.08
7839.74,2.35
7841.74,2.47
7843.74,2.29
7845.74,2.18
7847.74,2.0
7850.74,1.89
7852.74,1.83
7854.74,1.84
7856.74,1.93
7858.74,1.93
7860.74,2.04
7862.74,2.07
7864.74,2.01
7865.74,1.81
7867.74,1.45
7869.74,1.33
7871.74,1.3
7873.74,1.37
7875.74,1.36
7877.74,1.61
7879.74,1.83
7881.74,2.06
7883.74,1.96
7885.74,1.7
7887.74,1.29
7889.74,1.1
7892.74,1.07
7894.74,1.25
7896.74,1.56
7898.74,1.84
7900.74,1.96
7902.74,1.95
7904.74,1.76
7906.74,1.46
7908.74,1.38
7909.74,1.17
7911.74,1.04
7913.74,0.92
7915.74,1.14
7917.74,1.24
7919.74,1.5
7921.74,1.56
7923.74,1.26
7925.74,1.17
7927.74,0.88
7929.74,0.75
7931.74,0.7
7934.74,0.68
7936.74,0.66
7938.74,0.79
7940.74,0.96
7942.74,0.88
7944.74,0.86
7946.74,0.75
7948.74,0.49
7950.74,0.41
7952.74,0.46
7953.74,0.54
7955.74,0.61
7957.74,0.7
7959.74,0.8
7961.74,0.91
7963.74,0.98
7965.74,0.96
7967.74,0.98
7969.74,1.02
7971.74,1.07
7973.74,1.12
7975.74,1.18
7978.74,1.23
7980.74,1.33
7982.74,1.66
7984.74,1.62
7986.74,1.45
7988.74,1.37
7990.74,1.33
7992.74,1.33
7994.74,1.36
7996.74,1.39
7997.74,1.43
7999.74,1.6
8001.74,1.98
8003.74,1.78
8005.74,1.55
8007.74,1.43
8009.74,1.41
8011.74,1.42
8013.74,1.44
8015.74,1.45
8017.74,1.49
8020.74,1.51
8022.74,1.52
8024.74,1.53
8026.74,1.53
8028.74,1.51
8030.74,1.52
8032.74,1.52
8034.74,1.54
8036.74,1.55
8038.74,1.55
8039.74,1.56
8041.74,1.57
8043.74,1.58
8045.74,1.58
8047.74,1.57
8049.74,1.57
8051.74,1.58
8053.74,1.58
8055.74,1.59
8057.74,1.59
8059.74,1.6
8062.74,1.6
8064.74,1.6
8066.74,1.6
8068.74,1.59
8070.74,1.59
8072.74,1.6
8074.74,1.6
8076.74,1.6
8078.74,1.6
8080.74,1.6
8082.74,1.61
8083.74,1.6
8085.74,1.6
8087.74,1.59
8089.74,1.59
8091.74,1.59
8093.74,1.59
8095.74,1.59
8097.74,1.59
8099.74,1.6
8101.74,1.6
8103.74,1.59
8106.74,1.59
8108.74,1.58
8110.74,1.58
8112.74,1.58
8114.74,1.58
8116.74,1.58
8118.74,1.58
8120.74,1.58
8122.74,1.58
8124.74,1.58
8125.74,1.57
8127.74,1.57
8129.74,1.56
8131.74,1.56
8133.74,1.56
8135.74,1.56
8137.74,1.57
8139.74,1.57
8141.74,1.57
8143.74,1.56
8145.74,1.56
8148.74,1.55
8150.74,1.55
8152.74,1.55
8154.74,1.55
8156.74,1.55
8158.74,1.55
8160.74,1.55
8162.74,1.55
8164.74,1.55
8166.74,1.55
8168.74,1.54
8169.74,1.54
8171.74,1.54
8173.74,1.54
8175.74,1.54
8177.74,1.54
8179.74,1.54
8181.74,1.54
8183.74,1.54
8185.74,1.53
8187.74,1.53
8190.74,1.53
8192.74,1.53
8194.74,1.53
8196.74,1.53
8198.74,1.53
8200.74,1.53
8202.74,1.53
8204.74,1.53
8206.74,1.52
8208.74,1.52
8210.74,1.52
8211.74,1.52
8213.74,1.52
8215.74,1.52
8217.74,1.52
8219.74,1.52
8221.74,1.52
8223.74,1.52
8225.74,1.52
8227.74,1.51
8229.74,1.51
8231.74,1.51
8234.74,1.51
8236.74,1.51
8238.74,1.51
8240.74,1.51
8242.74,1.51
8244.74,1.51
8246.74,1.51
8248.74,1.5
8250.74,1.5
8252.74,1.5
8254.74,1.5
8255.74,1.5
8257.74,1.51
8259.74,1.51
8261.74,1.51
8263.74,1.51
8265.74,1.5
8267.74,1.5
8269.74,1.5
8271.74,1.5
8273.74,1.5
8276.74,1.5
8278.74,1.5
8280.74,1.5
8282.74,1.5
8284.74,1.5
8286.74,1.5
8288.74,1.49
8290.74,1.49
8292.74,1.49
8294.74,1.49
8296.74,1.49
8297.74,1.5
8299.74,1.5
8301.74,1.5
8303.74,1.5
8305.74,1.49
8307.74,1.49
8309.74,1.49
8311.74,1.49
8313.74,1.49
8315.74,1.49
8318.74,1.49
8320.74,1.5
8322.74,1.5
8324.74,1.49
8326.74,1.49
8328.74,1.49
8330.74,1.48
8332.74,1.48
8334.74,1.49
8336.74,1.49
8338.74,1.49
8340.74,1.49
8341.74,1.49
8343.74,1.49
8345.74,1.49
8347.74,1.48
8349.74,1.48
8351.74,1.48
8353.74,1.48
8355.74,1.49
8357.74,1.49
8359.74,1.49
8362.74,1.49
8364.74,1.49
8366.74,1.49
8368.74,1.48
8370.74,1.48
8372.74,1.48
8374.74,1.48
8376.74,1.48
8378.74,1.49
8380.74,1.49
8382.74,1.49
8384.74,1.49
8385.74,1.49
8387.74,1.48
8389.74,1.48
8391.74,1.48
8393.74,1.48
8395.74,1.48
8397.74,1.49
8399.74,1.49
8401.74,1.49
8404.74,1.49
8406.74,1.48
8408.74,1.48
8410.74,1.48
8412.74,1.48
8414.74,1.48
8416.74,1.48
8418.74,1.48
8420.74,1.49
8422.74,1.49
8424.74,1.48
8426.74,1.48
8428.74,1.48
8429.74,1.48
8431.74,1.48
8433.74,1.48
8435.74,1.48
8437.74,1.48
8439.74,1.49
8441.74,1.49
8443.74,1.48
8446.74,1.48
8448.74,1.48
8450.74,1.48
8452.74,1.48
8454.74,1.48
8456.74,1.48
8458.74,1.48
8460.74,1.48
8462.74,1.49
8464.74,1.48
8466.74,1.48
8468.74,1.48
8470.74,1.48
8471.74,1.47
8473.74,1.48
8475.74,1.48
8477.74,1.48
8479.74,1.48
8481.74,1.48
8483.74,1.48
8485.74,1.48
8487.74,1.48
8490.74,1.47
8492.74,1.48
8494.74,1.48
8496.74,1.48
8498.74,1.48
8500.74,1.48
8502.74,1.48
8504.74,1.48
8506.74,1.48
8508.74,1.47
8510.74,1.47
8512.74,1.48
8514.74,1.48
8515.74,1.48
8517.74,1.48
8519.74,1.48
8521.74,1.48
8523.74,1.48
8525.74,1.48
8527.74,1.48
8529.74,1.47
8532.74,1.48
8534.74,1.48
8536.74,1.48
8538.74,1.48
8540.74,1.48
8542.74,1.48
8544.74,1.48
8546.74,1.48
8548.74,1.47
8550.74,1.47
8552.74,1.48
8554.74,1.48
8556.74,1.48
8558.74,1.48
8559.74,1.48
8561.74,1.48
8563.74,1.48
8565.74,1.48
8567.74,1.48
8569.74,1.47
8571.74,1.48
8574.74,1.48
8576.74,1.49
8578.74,1.86
8580.74,2.83
8582.74,3.3
8584.74,3.3
8586.74,3.3
8588.74,3.3
8590.74,3.3
8592.74,3.3
8594.74,3.3
8596.74,3.3
8598.74,3.3
8600.74,3.3
8601.74,3.3
8603.74,3.3
8605.74,3.3
8607.74,3.3
8609.74,3.3
8611.74,3.3
8613.74,3.3
8615.74,3.3
8618.74,3.3
8620.74,3.3
8622.74,3.3
8624.74,3.3
8626.74,3.3
8628.74,3.3
8630.74,3.3
8632.74,3.3
8634.74,3.3
8636.74,3.3
8638.74,3.3
8640.74,3.3
8642.74,3.3
8644.74,3.3
8645.74,3.3
8647.74,3.3
8649.74,3.3
8651.74,3.3
8653.74,3.3
8655.74,3.3
8657.74,3.3
8660.74,3.3
8662.74,3.3
8664.74,3.3
8666.74,3.3
8668.74,3.3
8670.74,3.3
8672.74,3.3
8674.74,3.3
8676.74,3.3
8678.74,3.3
8680.74,3.3
8682.74,3.3
8684.74,3.3
8686.74,3.3
8687.74,3.3
8689.74,3.3
8691.74,3.3
8693.74,3.3
8695.74,3.3
8697.74,3.3
8699.74,3.3
8702.74,3.3
8704.74,3.3
8706.74,3.3
8708.74,3.3
8710.74,3.3
8712.74,3.3
8714.74,3.3
8716.74,3.3
8718.74,3.3
8720.74,3.3
8722.74,3.3
8724.74,3.3
8726.74,3.3
8728.74,3.3
8730.74,3.3
8731.74,3.3
8733.74,3.3
8735.74,3.3
8737.74,3.3
8739.74,3.3
8741.74,3.3
8743.74,3.3
8746.74,3.3
8748.74,3.3
8750.74,3.3
8752.74,3.3
8754.74,3.3
8756.74,2.7
8758.74,1.24
8760.74,0.0
8762.74,0.0
8764.74,0.0
8766.74,0.0
8768.74,0.0
8770.74,0.0
8772.74,0.0
8774.74,0.0
8775.74,0.0
8777.74,0.0
8779.74,0.0
8781.74,0.0
8783.74,0.0
8785.74,0.0
8788.74,0.0
8790.74,0.0
8792.74,0.0
8794.74,0.0
8796.74,0.0
8798.74,0.0
8800.74,0.0
8802.74,0.0
8804.74,0.0
8806.74,0.0
8808.74,0.0
8810.74,0.0
8812.74,0.0
8814.74,0.0
8816.74,0.0
8818.74,0.0
8819.74,0.0
8821.74,0.0
8823.74,0.0
8825.74,0.0
8827.74,0.0
8830.74,0.0
8832.74,0.0
8834.74,0.0
8836.74,0.0
8838.74,0.0
8840.74,0.0
8842.74,0.0
8844.74,0.0
8846.74,0.0
8848.74,0.0
8850.74,0.0
8852.74,0.0
8854.74,0.0
8856.74,0.0
8858.74,0.0
8860.74,0.0
8861.74,0.0
8863.74,0.0
8865.74,0.0
8867.74,0.0
8869.74,0.0
8871.74,0.0
8874.74,0.0
8876.74,0.0
8878.74,0.0
8880.74,0.0
8882.74,0.0
8884.74,0.0
8886.74,0.0
8888.74,0.0
8890.74,0.0
8892.74,0.0
8894.74,0.0
8896.74,0.0
8898.74,0.0
8900.74,0.0
8902.74,0.0
8904.74,0.0
8905.74,0.0
8907.74,0.0
8909.74,0.0
8911.74,0.0
8913.74,0.0
8916.74,0.0
8918.74,0.0
8920.74,0.0
8922.74,0.0
8924.74,0.0
8926.74,0.0
8928.74,0.0
8930.74,0.0
8932.74,0.0
8934.74,0.0
8936.74,0.0
8938.74,0.0
8940.74,0.0
8942.74,0.0
8944.74,0.0
8946.74,0.0
8948.74,0.0
8949.74,0.0
8951.74,0.0
8953.74,0.0
8955.74,0.0
8958.74,0.0
8960.74,0.0
8962.74,0.0
8964.74,0.0
8966.74,0.0
8968.74,0.0
8970.74,0.0
8972.74,0.0
8974.74,0.0
8976.74,0.0
8978.74,0.0
8980.74,0.0
8982.74,0.0
8984.74,0.0
8986.74,0.0
8988.74,0.0
8990.74,0.0
8991.74,0.0
8993.74,0.0
8995.74,0.0
8997.74,0.0
8999.74,0.0
9002.74,0.0
9004.74,0.0
9006.74,0.0
9008.74,0.0
9010.74,0.0
9012.74,0.0
9014.74,0.0
9016.74,0.0
9018.74,0.09
9020.74,0.15
9022.74,0.11
9024.74,0.0
9026.74,0.0
9028.74,0.0
9030.74,0.0
9032.74,0.0
9034.74,0.0
9035.74,0.0
9037.74,0.41
9039.74,0.95
9041.74,1.3
9044.74,1.45
9046.74,1.47
9048.74,1.22
9050.74,1.19
9052.74,1.37
9054.74,1.65
9056.74,1.84
9058.74,2.24
9060.74,2.6
9062.74,2.79
9064.74,3.02
9066.74,3.04
9068.74,2.6
9070.74,2.59
9072.74,2.74
9074.74,2.75
9076.74,2.71
9078.74,3.06
9079.74,3.14
9081.74,2.99
9083.74,2.96
9086.74,2.96
9088.74,2.55
9090.74,2.16
9092.74,1.8
9094.74,1.77
9096.74,2.31
9098.74,2.79
9100.74,2.89
9102.74,3.14
9104.74,2.93
9106.74,2.75
9108.74,2.26
9110.74,2.12
9112.74,2.15
9114.74,2.57
9116.74,2.96
9118.74,3.3
9120.74,3.3
9122.74,3.3
9123.74,3.3
9125.74,3.3
9127.74,3.3
9130.74,3.3
9132.74,3.3
9134.74,3.25
9136.74,1.95
9138.74,1.82
9140.74,1.46
9142.74,1.82
9144.74,1.59
9146.74,1.03
9148.74,0.55
9150.74,0.71
9152.74,0.85
9154.74,1.08
9156.74,1.62
9158.74,1.84
9160.74,2.08
9162.74,2.22
9164.74,2.1
9166.74,2.17
9167.74,1.9
9169.74,1.78
9172.74,1.77
9174.74,2.12
9176.74,2.2
9178.74,2.41
9180.74,2.32
9182.74,2.15
9184.74,1.81
9186.74,1.52
9188.74,1.02
9190.74,0.93
9192.74,1.05
9194.74,1.32
9196.74,1.63
9198.74,1.73
9200.74,1.8
9202.74,1.87
9204.74,1.46
9206.74,1.05
9208.74,0.76
9210.74,0.52
9211.74,0.76
9214.74,0.81
9216.74,1.15
9218.74,1.44
9220.74,1.45
9222.74,1.4
9224.74,1.58
9226.74,1.3
9228.74,0.75
9230.74,0.64
9232.74,0.88
9234.74,1.31
9236.74,1.46
9238.74,1.36
9240.74,1.24
9242.74,1.05
9244.74,0.98
9246.74,0.83
9248.74,0.43
9250.74,0.15
9252.74,0.0
9254.74,0.0
9255.74,0.0
9258.74,0.0
9260.74,0.27
9262.74,0.92
9264.74,1.06
9266.74,0.99
9268.74,0.77
9270.74,0.78
9272.74,0.81
9274.74,0.9
9276.74,1.05
9278.74,1.32
9280.74,1.37
9282.74,1.54
9284.74,1.28
9286.74,1.32
9288.74,1.37
9290.74,1.91
9292.74,2.16
9294.74,2.01
9296.74,2.1
9297.74,2.67
9300.74,2.84
9302.74,2.87
9304.74,2.61
9306.74,2.55
9308.74,2.01
9310.74,1.97
9312.74,1.85
9314.74,1.84
9316.74,1.79
9318.74,2.01
9320.74,1.95
9322.74,1.76
9324.74,1.75
9326.74,1.79
9328.74,1.69
9330.74,1.84
9332.74,2.0
9334.74,1.97
9336.74,2.25
9338.74,2.09
9340.74,2.15
9342.74,2.39
9344.74,2.36
9346.74,2.01
9348.74,1.51
9350.74,1.25
9352.74,0.86
9354.74,0.73
9356.74,0.73
9358.74,1.01
9360.74,1.04
9362.74,1.28
9364.74,1.16
9366.74,0.98
9368.74,0.48
9370.74,0.31
9372.74,0.45
9374.74,0.69
9376.74,0.79
9378.74,1.21
9380.74,1.64
9382.74,1.98
9385.74,1.95
9386.74,1.6
9388.74,1.21
9390.74,1.17
9392.74,1.19
9394.74,1.18
9396.74,1.42
9398.74,1.66
9400.74,1.87
9402.74,1.92
9404.74,1.44
9406.74,1.04
9408.74,0.95
9410.74,1.17
9412.74,1.55
9414.74,1.65
9416.74,1.83
9418.74,1.94
9420.74,2.0
9422.74,2.02
9424.74,1.99
9426.74,1.93
9429.74,1.54
9430.74,1.31
9432.74,1.16
9434.74,1.23
9436.74,1.28
9438.74,1.49
9440.74,1.79
9442.74,2.06
9444.74,1.62
9446.74,1.1
9448.74,0.58
9450.74,0.73
9452.74,0.91
9454.74,0.99
9456.74,1.07
9458.74,1.05
9460.74,1.02
9462.74,1.17
9464.74,0.94
9466.74,0.69
9468.74,0.43
9471.74,0.49
9473.74,0.46
9474.74,0.46
9476.74,0.65
9478.74,1.04
9480.74,1.32
9482.74,1.57
9484.74,1.62
9486.74,1.34
9488.74,1.16
9490.74,1.23
9492.74,1.37
9494.74,1.3
9496.74,1.2
9498.74,1.28
9500.74,1.23
9502.74,1.18
9504.74,0.86
9506.74,0.66
9508.74,0.36
9510.74,0.37
9513.74,0.64
9515.74,0.99
9516.74,1.17
9518.74,1.38
9520.74,1.33
9522.74,1.45
9524.74,1.22
9526.74,0.88
9528.74,0.62
9530.74,0.65
9532.74,0.72
9534.74,0.74
9536.74,0.88
9538.74,1.17
9540.74,1.33
9542.74,1.46
9544.74,1.62
9546.74,1.3
9548.74,1.07
9550.74,1.19
9552.74,1.37
9554.74,1.55
9557.74,2.23
9559.74,2.89
9560.74,3.3
9562.74,3.3
9564.74,3.3
9566.74,3.3
9568.74,3.19
9570.74,3.08
9572.74,3.0
9574.74,3.07
9576.74,3.24
9578.74,3.3
9580.74,3.3
9582.74,3.3
9584.74,3.14
9586.74,2.89
9588.74,2.61
9590.74,2.67
9592.74,2.89
9594.74,3.01
9596.74,2.96
9599.74,2.95
9601.74,3.21
9603.74,3.29
9604.74,3.03
9606.74,2.59
9608.74,2.29
9610.74,2.26
9612.74,2.22
9614.74,2.2
9616.74,2.11
9618.74,2.35
9620.74,2.55
9622.74,2.4
9624.74,2.35
9626.74,1.96
9628.74,1.69
9630.74,1.75
9632.74,1.76
9634.74,1.55
9636.74,1.53
9638.74,1.53
9641.74,1.48
9643.74,1.61
9645.74,1.35
9647.74,1.27
9648.74,1.0
9650.74,1.01
9652.74,1.14
9654.74,1.13
9656.74,1.43
9658.74,2.0
9660.74,2.32
9662.74,2.51
9664.74,2.16
9666.74,1.68
9668.74,1.26
9670.74,1.09
9672.74,1.05
9674.74,1.37
9676.74,1.37
9678.74,1.51
9680.74,1.65
9682.74,1.61
9685.74,1.25
9687.74,0.71
9689.74,0.12
9690.74,0.05
9692.74,0.13
9694.74,0.22
9696.74,0.48
9698.74,0.65
9700.74,0.96
9702.74,1.12
9704.74,0.91
9706.74,0.38
9708.74,0.08
9710.74,0.15
9712.74,0.03
9714.74,0.29
9716.74,0.62
9718.74,0.87
9720.74,0.94
9722.74,0.66
9724.74,0.51
9727.74,0.36
9729.74,0.21
9731.74,0.3
9733.74,0.43
9734.74,0.4
9736.74,0.57
9738.74,0.96
9740.74,1.18
9742.74,1.34
9744.74,0.95
9746.74,0.93
9748.74,1.03
9750.74,0.88
9752.74,0.76
9754.74,0.64
9756.74,0.66
9758.74,1.0
9760.74,1.32
9762.74,1.39
9764.74,1.38
9766.74,1.09
9769.74,0.73
9771.74,0.73
9773.74,0.77
9775.74,0.87
9777.74,1.02
9778.74,1.22
9780.74,1.46
9782.74,1.48
9784.74,1.25
9786.74,0.66
9788.74,0.43
9790.74,0.55
9792.74,0.64
9794.74,0.73
9796.74,1.15
9798.74,1.7
9800.74,1.94
9802.74,2.12
9804.74,1.83
9806.74,1.46
9808.74,1.15
9810.74,0.97
9813.74,0.86
9815.74,1.16
9817.74,1.54
9819.74,1.97
9821.74,2.05
9822.74,1.97
9824.74,1.71
9826.74,1.34
9828.74,1.35
9830.74,1.42
9832.74,1.21
9834.74,1.26
9836.74,1.45
9838.74,1.72
9840.74,1.78
9842.74,1.99
9844.74,1.81
9846.74,1.84
9848.74,1.55
9850.74,1.69
9852.74,1.64
9855.74,1.65
9857.74,1.89
9859.74,2.36
9861.74,2.47
9863.74,2.46
9865.74,2.34
9866.74,1.95
9868.74,1.58
9870.74,1.46
9872.74,1.45
9874.74,1.58
9876.74,1.54
9878.74,1.71
9880.74,1.61
9882.74,1.66
9884.74,1.52
9886.74,1.19
9888.74,1.02
9890.74,0.99
9892.74,1.02
9894.74,1.29
9897.74,1.66
9899.74,1.82
9901.74,2.16
9903.74,2.03
9905.74,1.6
9907.74,1.17
9908.74,0.88
9910.74,0.87
9912.74,1.03
9914.74,0.96
9916.74,1.16
9918.74,1.43
9920.74,1.55
9922.74,1.47
9924.74,1.4
9926.74,1.08
9928.74,1.05
9930.74,1.0
9932.74,1.14
9934.74,1.15
9936.74,1.27
9938.74,1.55
9941.74,1.77
9943.74,1.65
9945.74,1.5
9947.74,1.22
9949.74,0.94
9951.74,0.83
9952.74,0.82
9954.74,0.73
9956.74,0.96
9958.74,1.24
9960.74,1.28
9962.74,1.43
9964.74,1.31
9966.74,0.99
9968.74,0.82
9970.74,0.87
9972.74,0.95
9974.74,1.05
9976.74,1.14
9978.74,1.27
9980.74,1.63
9983.74,1.81
9985.74,1.66
9987.74,1.54
9989.74,1.46
9991.74,1.46
9993.74,1.51
9995.74,1.56
9996.74,1.6
9998.74,1.68
10000.74,1.9
10002.74,2.05
10004.74,1.84
10006.74,1.76
10008.74,1.72
10010.74,1.73
10012.74,1.76
10014.74,1.8
10016.74,1.82
10018.74,1.91
10020.74,2.03
10022.74,2.15
10025.74,2.09
10027.74,1.98
10029.74,1.84
10031.74,1.82
10033.74,1.83
10035.74,1.84
10037.74,1.85
10038.74,1.9
10040.74,2.01
10042.74,2.25
10044.74,2.11
10046.74,1.95
10048.74,1.83
10050.74,1.8
10052.74,1.8
10054.74,1.82
10056.74,1.83
10058.74,1.89
10060.74,2.06
10062.74,2.14
10064.74,1.98
10066.74,1.82
10069.74,1.76
10071.74,1.76
10073.74,1.76
10075.74,1.77
10077.74,1.78
10079.74,1.8
10080.74,1.82
10082.74,1.82
10084.74,1.8
10086.74,1.77
10088.74,1.76
10090.74,1.76
10092.74,1.76
10094.74,1.76
10096.74,1.76
10098.74,1.77
10100.74,1.78
10102.74,1.78
10104.74,1.77
10106.74,1.75
10108.74,1.75
10111.74,1.75
10113.74,1.75
10115.74,1.75
10117.74,1.75
10119.74,1.75
10121.74,1.75
10123.74,1.74
10124.74,1.74
10126.74,1.73
10128.74,1.72
10130.74,1.72
10132.74,1.72
10134.74,1.72
10136.74,1.72
10138.74,1.72
10140.74,1.71
10142.74,1.71
10144.74,1.7
10146.74,1.7
10148.74,1.69
10150.74,1.69
10153.74,1.68
10155.74,1.68
10157.74,1.68
10159.74,1.68
10161.74,1.68
10163.74,1.68
10165.74,1.67
10166.74,1.66
10168.74,1.65
10170.74,1.65
10172.74,1.65
10174.74,1.65
10176.74,1.65
10178.74,1.65
10180.74,1.65
10182.74,1.65
10184.74,1.64
10186.74,1.63
10188.74,1.63
10190.74,1.62
10192.74,1.62
10194.74,1.62
10197.74,1.62
10199.74,1.62
10201.74,1.62
10203.74,1.62
10205.74,1.61
10207.74,1.6
10208.74,1.6
10210.74,1.6
10212.74,1.6
10214.74,1.6
10216.74,1.6
10218.74,1.6
10220.74,1.6
10222.74,1.59
10224.74,1.59
10226.74,1.58
10228.74,1.58
10230.74,1.57
10232.74,1.57
10234.74,1.57
10236.74,1.58
10239.74,1.58
10241.74,1.58
10243.74,1.58
10245.74,1.58
10247.74,1.56
10249.74,1.56
10251.74,1.55
10252.74,1.56
10254.74,1.56
10256.74,1.56
10258.74,1.58
10260.74,1.61
10262.74,1.62
10264.74,1.82
10266.74,1.75
10268.74,1.62
10270.74,1.59
10272.74,1.6
10274.74,1.65
10276.74,2.21
10278.74,2.72
10281.74,3.0
10283.74,2.95
10285.74,2.7
10287.74,2.25
10289.74,2.06
10291.74,1.84
10293.74,1.84
10294.74,1.87
10296.74,2.11
10298.74,2.22
10300.74,2.52
10302.74,2.38
10304.74,1.84
10306.74,1.65
10308.74,1.42
10310.74,1.2
10312.74,1.36
10314.74,1.55
10316.74,1.68
10318.74,1.83
10320.74,1.95
10322.74,2.0
10325.74,1.97
10327.74,1.65
10329.74,1.25
10331.74,1.14
10333.74,1.24
10335.74,1.36
10336.74,1.45
10338.74,1.8
10340.74,1.94
10342.74,1.86
10344.74,1.88
10346.74,1.58
10348.74,1.31
10350.74,1.37
10352.74,1.42
10354.74,1.38
10356.74,1.59
10358.74,1.7
10360.74,1.58
10362.74,1.57
10364.74,1.3
10367.74,1.05
10369.74,0.89
10371.74,0.76
10373.74,0.51
10375.74,0.69
10377.74,0.76
10379.74,0.84
10380.74,1.0
10382.74,1.15
10384.74,1.04
10386.74,0.92
10388.74,0.78
10390.74,0.68
10392.74,1.04
10394.74,1.53
10396.74,1.9
10398.74,2.3
10400.74,2.39
10402.74,2.29
10404.74,1.94
10406.74,1.79
10409.74,1.72
10411.74,1.82
10413.74,2.14
10415.74,2.03
10417.74,2.11
10419.74,2.44
10421.74,2.41
10422.74,2.43
10424.74,2.4
10426.74,2.36
10428.74,2.26
10430.74,2.34
10432.74,2.32
10434.74,2.25
10436.74,2.09
10438.74,2.32
10440.74,2.45
10442.74,2.55
10444.74,2.46
10446.74,2.12
10448.74,1.87
10450.74,1.94
10453.74,1.64
10455.74,1.72
10457.74,1.89
10459.74,2.25
10461.74,2.48
10463.74,2.58
10464.74,2.4
10466.74,2.13
10468.74,1.87
10470.74,1.56
10472.74,1.65
10474.74,1.64
10476.74,1.55
10478.74,1.68
10480.74,2.15
10482.74,1.87
10484.74,1.99
10486.74,1.09
10488.74,0.11
10490.74,0.0
10492.74,0.0
10495.74,0.0
10497.74,0.0
10499.74,0.23
10501.74,0.29
10503.74,0.19
10505.74,0.16
10507.74,0.0
10508.74,0.0
10510.74,0.0
10512.74,0.19
10514.74,0.28
10516.74,0.68
10518.74,1.09
10520.74,1.19
10522.74,1.43
10524.74,1.44
10526.74,1.37
10528.74,1.48
10530.74,1.47
10532.74,1.33
10534.74,1.36
10537.74,1.56
10539.74,1.7
10541.74,1.71
10543.74,1.81
10545.74,1.48
10547.74,1.18
10549.74,0.9
10550.74,0.64
10552.74,0.66
10554.74,0.76
10556.74,0.57
10558.74,1.05
10560.74,1.24
10562.74,1.29
10564.74,1.14
10566.74,0.97
10568.74,0.64
10570.74,0.82
10572.74,0.96
10574.74,1.15
10576.74,1.19
10578.74,1.6
10581.74,1.86
10583.74,1.8
10585.74,1.41
10587.74,0.95
10589.74,0.63
10591.74,0.74
10592.74,0.71
10594.74,0.84
10596.74,1.1
10598.74,1.24
10600.74,1.38
10602.74,1.34
10604.74,1.31
10606.74,0.89
10608.74,0.98
10610.74,1.0
10612.74,0.95
10614.74,1.35
10616.74,1.73
10618.74,1.85
10620.74,1.79
10623.74,1.69
10625.74,1.47
10627.74,0.99
10629.74,0.86
10631.74,0.63
10633.74,0.55
10635.74,0.54
10636.74,0.61
10638.74,0.87
10640.74,1.03
10642.74,1.07
10644.74,0.85
10646.74,0.52
10648.74,0.28
10650.74,0.2
10652.74,0.37
10654.74,0.46
10656.74,0.58
10658.74,1.06
10660.74,1.33
10662.74,1.33
10665.74,1.35
10667.74,1.11
10669.74,0.98
10671.74,1.08
10673.74,1.53
10675.74,1.71
10677.74,2.11
10678.74,2.56
10680.74,2.71
10682.74,2.51
10684.74,2.14
10686.74,1.81
10688.74,1.83
10690.74,1.78
10692.74,1.4
10694.74,1.82
10696.74,2.11
10698.74,2.57
10700.74,2.88
10702.74,2.74
10704.74,2.6
10706.74,2.09
10709.74,1.84
10711.74,1.98
10713.74,1.85
10715.74,2.03
10717.74,2.13
10719.74,2.4
10720.74,2.46
10722.74,2.34
10724.74,2.12
10726.74,1.86
10728.74,1.65
10730.74,1.73
10732.74,1.74
10734.74,1.75
10736.74,1.69
10738.74,1.8
10740.74,1.87
10742.74,1.6
10744.74,1.24
10746.74,0.97
10748.74,0.54
10751.74,0.4
10753.74,0.36
10755.74,0.25
10757.74,0.24
10759.74,0.53
10761.74,0.65
10763.74,0.65
10764.74,0.47
10766.74,0.26
10768.74,0.27
10770.74,0.36
10772.74,0.46
10774.74,0.56
10776.74,0.65
10778.74,0.74
10780.74,0.82
10782.74,0.89
10784.74,0.96
10786.74,1.02
10788.74,1.07
10790.74,1.13
10793.74,1.18
10795.74,1.23
10797.74,1.28
10799.74,1.32
10801.74,1.36
10803.74,1.39
10805.74,1.42
10806.74,1.44
10808.74,1.47
10810.74,1.49
10812.74,1.52
10814.74,1.54
10816.74,1.56
10818.74,1.58
10820.74,1.6
10822.74,1.61
10824.74,1.62
10826.74,1.63
10828.74,1.64
10830.74,1.65
10832.74,1.66
10834.74,1.66
10837.74,1.67
10839.74,1.68
10841.74,1.69
10843.74,1.69
10845.74,1.69
10847.74,1.69
10848.74,1.69
10850.74,1.7
10852.74,1.7
10854.74,1.7
10856.74,1.71
10858.74,1.71
10860.74,1.71
10862.74,1.71
10864.74,1.71
10866.74,1.7
10868.74,1.7
10870.74,1.7
10872.74,1.7
10874.74,1.7
10876.74,1.7
10879.74,1.7
10881.74,1.7
10883.74,1.69
10885.74,1.69
10887.74,1.68
10889.74,1.68
10891.74,1.68
10892.74,1.68
10894.74,1.67
10896.74,1.67
10898.74,1.67
10900.74,1.67
10902.74,1.67
10904.74,1.66
10906.74,1.65
10908.74,1.65
10910.74,1.65
10912.74,1.65
10914.74,1.65
10916.74,1.65
10918.74,1.65
10921.74,1.65
10923.74,1.64
10925.74,1.64
10927.74,1.63
10929.74,1.62
10931.74,1.62
10933.74,1.62
10934.74,1.62
10936.74,1.62
10938.74,1.62
10940.74,1.62
10942.74,1.61
10944.74,1.61
10946.74,1.6
10948.74,1.6
10950.74,1.6
10952.74,1.59
10954.74,1.59
10956.74,1.59
10958.74,1.59
10960.74,1.59
10962.74,1.59
10965.74,1.58
10967.74,1.58
10969.74,1.57
10971.74,1.57
10973.74,1.57
10975.74,1.57
10976.74,1.57
10978.74,1.57
10980.74,1.57
10982.74,1.57
10984.74,1.56
10986.74,1.56
10988.74,1.55
10990.74,1.55
10992.74,1.55
10994.74,1.55
10996.74,1.55
10998.74,1.55
11000.74,1.55
11002.74,1.55
11004.74,1.55
11007.74,1.55
11009.74,1.54
11011.74,1.54
11013.74,1.54
11015.74,1.54
11017.74,1.54
11019.74,1.54
11020.74,1.54
11022.74,1.54
11024.74,1.54
11026.74,1.53
11028.74,1.53
11030.74,1.53
11032.74,1.53
11034.74,1.53
11036.74,1.53
11038.74,1.53
11040.74,1.53
11042.74,1.53
11044.74,1.53
11046.74,1.52
11049.74,1.52
11051.74,1.52
11053.74,1.52
11055.74,1.52
11057.74,1.52
11059.74,1.52
11061.74,1.52
11062.74,1.52
11064.74,1.52
11066.74,1.51
11068.74,1.51
11070.74,1.51
11072.74,1.51
11074.74,1.51
11076.74,1.51
11078.74,1.51
11080.74,1.51
11082.74,1.51
11084.74,1.51
11086.74,1.5
11088.74,1.5
11090.74,1.5
11093.74,1.5
11095.74,1.5
11097.74,1.5
11099.74,1.51
11101.74,1.51
11103.74,1.51
11105.74,1.5
11106.74,1.5
11108.74,1.5
11110.74,1.5
11112.74,1.5
11114.74,1.5
11116.74,1.5
11118.74,1.5
11120.74,1.5
11122.74,1.5
11124.74,1.5
11126.74,1.49
11128.74,1.49
11130.74,1.49
11132.74,1.49
11135.74,1.49
11137.74,1.49
11139.74,1.5
11141.74,1.5
11143.74,1.5
11145.74,1.49
11147.74,1.49
11148.74,1.49
11150.74,1.49
11152.74,1.49
11154.74,1.49
11156.74,1.49
11158.74,1.49
11160.74,1.5
11162.74,1.49
11164.74,1.49
11166.74,1.49
11168.74,1.48
11170.74,1.48
11172.74,1.49
11174.74,1.49
11177.74,1.49
11179.74,1.49
11181.74,1.49
11183.74,1.49
11185.74,1.49
11187.74,1.48
11189.74,1.48
11190.74,1.48
11192.74,1.48
11194.74,1.49
11196.74,1.49
11198.74,1.49
11200.74,1.49
11202.74,1.49
11204.74,1.49
11206.74,1.48
11208.74,1.48
11210.74,1.48
11212.74,1.48
11214.74,1.48
11216.74,1.49
11218.74,1.49
11221.74,1.49
11223.74,1.49
11225.74,1.48
11227.74,1.48
11229.74,1.48
11231.74,1.48
11233.74,1.48
11234.74,1.48
11236.74,1.48
11238.74,1.49
11240.74,1.49
11242.74,1.49
11244.74,1.48
11246.74,1.48
11248.74,1.48
11250.74,1.48
11252.74,1.48
11254.74,1.48
11256.74,1.48
11258.74,1.49
11260.74,1.49
11263.74,1.49
11265.74,1.48
11267.74,1.48
11269.74,1.48
11271.74,1.48
11273.74,1.48
11275.74,1.48
11276.74,1.48
11278.74,1.48
11280.74,1.49
11282.74,1.48
11284.74,1.48
11286.74,1.48
11288.74,1.47
11290.74,1.48
11292.74,1.48
11294.74,1.48
11296.74,1.48
11298.74,1.48
11300.74,1.48
11302.74,1.48
11305.74,1.48
11307.74,1.48
11309.74,1.47
11311.74,1.47
11313.74,1.48
11315.74,1.48
11317.74,1.48
11318.74,1.48
11320.74,1.48
11322.74,1.48
11324.74,1.48
11326.74,1.47
11328.74,1.47
11330.74,1.47
11332.74,1.48
11334.74,1.48
11336.74,1.48
11338.74,1.48
11340.74,1.48
11342.74,1.48
11344.74,1.48
11346.74,1.48
11349.74,1.47
11351.74,1.47
11353.74,1.47
11355.74,1.48
11357.74,1.48
11359.74,1.48
11361.74,1.48
11362.74,1.48
11364.74,1.48
11366.74,1.47
11368.74,1.47
11370.74,1.47
11372.74,1.48
11374.74,1.48
11376.74,1.48
11378.74,1.48
11380.74,1.48
11382.74,1.48
11384.74,1.48
11386.74,1.47
11388.74,1.47
11391.74,1.47
11393.74,1.48
11395.74,1.48
11397.74,1.48
11399.74,1.48
11401.74,1.48
11403.74,1.48
11404.74,1.48
11406.74,1.47
11408.74,1.47
11410.74,1.47
11412.74,1.47
11414.74,1.48
11416.74,1.48
11418.74,1.48
11420.74,1.48
11422.74,1.48
11424.74,1.48
11426.74,1.47
11428.74,1.47
11430.74,1.47
11433.74,1.48
11435.74,1.48
11437.74,1.48
11439.74,1.48
11441.74,1.48
11443.74,1.48
11445.74,1.48
11446.74,1.47
11448.74,1.47
11450.74,1.47
11452.74,1.47
11454.74,1.48
11456.74,1.48
11458.74,1.48
11460.74,1.48
11462.74,1.48
11464.74,1.48
11466.74,1.47
11468.74,1.47
11470.74,1.47
11472.74,1.47
11474.74,1.48
11477.74,1.48
11479.74,1.48
11481.74,1.48
11483.74,1.48
11485.74,1.48
11487.74,1.47
11489.74,1.47
11490.74,1.47
11492.74,1.47
11494.74,1.48
11496.74,1.48
11498.74,1.48
11500.74,1.48
11502.74,1.48
11504.74,1.48
11506.74,1.47
11508.74,1.47
11510.74,1.47
11512.74,1.47
11514.74,1.48
11516.74,1.48
11519.74,1.48
11521.74,1.48
11523.74,1.48
11525.74,1.48
11527.74,1.47
11529.74,1.47
11531.74,1.47
11532.74,1.47
11534.74,1.48
11536.74,1.48
11538.74,1.48
11540.74,1.48
11542.74,1.48
11544.74,1.48
11546.74,1.47
11548.74,1.47
11550.74,1.47
11552.74,1.48
11554.74,1.48
11556.74,1.48
11558.74,1.48
11561.74,1.48
11563.74,1.48
11565.74,1.48
11567.74,1.47
11569.74,1.47
11571.74,1.47
11573.74,1.48
11574.74,1.48
11576.74,1.48
11578.74,1.48
11580.74,1.49
11582.74,1.49
11584.74,1.48
11586.74,1.47
11588.74,1.47
11590.74,1.47
11592.74,1.47
11594.74,1.48
11596.74,1.48
11598.74,1.49
11600.74,1.49
11602.74,1.47
11605.74,1.47
11607.74,1.46
11609.74,1.46
11611.74,1.47
11613.74,1.47
11615.74,1.47
11617.74,1.47
11618.74,1.47
11620.74,1.48
11622.74,1.47
11624.74,1.47
11626.74,1.47
11628.74,1.47
11630.74,1.47
11632.74,1.47
11634.74,1.47
11636.74,1.47
11638.74,1.48
11640.74,1.48
11642.74,1.48
11644.74,1.47
11647.74,1.47
11649.74,1.47
11651.74,1.47
11653.74,1.47
11655.74,1.47
11657.74,1.48
11659.74,1.48
11660.74,1.48
11662.74,1.48
11664.74,1.48
11666.74,1.47
11668.74,1.47
11670.74,1.47
11672.74,1.47
11674.74,1.48
11676.74,1.48
11678.74,1.48
11680.74,1.48
11682.74,1.48
11684.74,1.48
11686.74,1.47
11689.74,1.47
11691.74,1.47
11693.74,1.48
11695.74,1.48
11697.74,1.48
11699.74,1.48
11701.74,1.48
11702.74,1.48
11704.74,1.48
11706.74,1.47
11708.74,1.47
11710.74,1.47
11712.74,1.47
11714.74,1.48
11716.74,1.48
11718.74,1.48
11720.74,1.48
11722.74,1.48
11724.74,1.48
11726.74,1.47
11728.74,1.47
11730.74,1.47
11733.74,1.47
11735.74,1.48
11737.74,1.48
11739.74,1.48
11741.74,1.48
11743.74,1.48
11745.74,1.48
11746.74,1.47
11748.74,1.47
11750.74,1.47
11752.74,1.48
11754.74,1.48
11756.74,1.48
11758.74,1.48
11760.74,1.48
11762.74,1.48
11764.74,1.48
11766.74,1.47
11768.74,1.47
11770.74,1.47
11772.74,1.47
11775.74,1.48
11777.74,1.48
11779.74,1.48
11781.74,1.48
11783.74,1.48
11785.74,1.48
11787.74,1.47
11788.74,1.47
11790.74,1.47
11792.74,1.47
11794.74,1.48
11796.74,1.48
11798.74,1.48
11800.74,1.48
11802.74,1.48
11804.74,1.48
11806.74,1.47
11808.74,1.47
11810.74,1.47
11812.74,1.47
11814.74,1.48
11817.74,1.48
11819.74,1.48
11821.74,1.48
11823.74,1.48
11825.74,1.48
11827.74,1.47
11829.74,1.47
11830.74,1.47
11832.74,1.47
11834.74,1.48
11836.74,1.48
11838.74,1.48
11840.74,1.48
11842.74,1.48
11844.74,1.48
11846.74,1.47
11848.74,1.47
11850.74,1.47
11852.74,1.47
11854.74,1.48
11856.74,1.48
11858.74,1.48
11861.74,1.48
11863.74,1.48
11865.74,1.48
11867.74,1.47
11869.74,1.47
11871.74,1.47
11873.74,1.47
11874.74,1.48
11876.74,1.48
11878.74,1.48
11880.74,1.48
11882.74,1.48
11884.74,1.48
11886.74,1.47
11888.74,1.47
11890.74,1.47
11892.74,1.48
11894.74,1.48
11896.74,1.48
11898.74,1.48
11900.74,1.48
11903.74,1.48
11905.74,1.48
11907.74,1.47
11909.74,1.47
11911.74,1.47
11913.74,1.47
11915.74,1.48
11916.74,1.48
11918.74,1.48
11920.74,1.48
11922.74,1.48
11924.74,1.48
11926.74,1.47
11928.74,1.47
11930.74,1.47
11932.74,1.47
11934.74,1.48
11936.74,1.48
11938.74,1.48
11940.74,1.48
11942.74,1.48
11945.74,1.48
11947.74,1.47
11949.74,1.47
11951.74,1.47
11953.74,1.47
11955.74,1.48
11957.74,1.48
11958.74,1.48
11960.74,1.48
11962.74,1.48
11964.74,1.48
11966.74,1.47
11968.74,1.47
11970.74,1.47
11972.74,1.47
11974.74,1.48
11976.74,1.48
11978.74,1.48
11980.74,1.48
11982.74,1.48
11984.74,1.48
11986.74,1.47
11989.74,1.47
11991.74,1.47
11993.74,1.47
11995.74,1.48
11997.74,1.48
11999.74,1.48
12001.74,1.48
12002.74,1.48
12004.74,1.48
12006.74,1.47
12008.74,1.47
12010.74,1.47
12012.74,1.47
12014.74,1.47
12016.74,1.48
12018.74,1.48
12020.74,1.48
12022.74,1.48
12024.74,1.48
12026.74,1.47
12028.74,1.47
12031.74,1.47
12033.74,1.47
12035.74,1.48
12037.74,1.48
12039.74,1.48
12041.74,1.48
12043.74,1.48
12044.74,1.47
12046.74,1.47
12048.74,1.47
12050.74,1.47
12052.74,1.48
12054.74,1.48
12056.74,1.48
12058.74,1.48
12060.74,1.48
12062.74,1.48
12064.74,1.48
12066.74,1.47
12068.74,1.47
12070.74,1.47
12073.74,1.47
12075.74,1.48
12077.74,1.48
12079.74,1.48
12081.74,1.48
12083.74,1.48
12085.74,1.48
12087.74,1.47
12088.74,1.47
12090.74,1.47
12092.74,1.47
12094.74,1.48
12096.74,1.48
12098.74,1.48
12100.74,1.48
12102.74,1.48
12104.74,1.48
12106.74,1.47
12108.74,1.47
12110.74,1.47
12112.74,1.47
12114.74,1.48
12117.74,1.48
12119.74,1.48
12121.74,1.48
12123.74,1.48
12125.74,1.48
12127.74,1.47
12129.74,1.47
12130.74,1.47
12132.74,1.47
12134.74,1.48
12136.74,1.48
12138.74,1.48
12140.74,1.48
12142.74,1.48
12144.74,1.48
12146.74,1.47
12148.74,1.47
12150.74,1.47
12152.74,1.47
12154.74,1.48
12156.74,1.48
12159.74,1.48
12161.74,1.48
12163.74,1.48
12165.74,1.48
12167.74,1.47
12169.74,1.47
12171.74,1.47
12172.74,1.48
12174.74,1.48
12176.74,1.48
12178.74,1.48
12180.74,1.48
12182.74,1.48
12184.74,1.49
12186.74,1.52
12188.74,1.61
12190.74,2.35
12192.74,3.05
12194.74,3.3
12196.74,3.3
12198.74,3.3
12201.74,3.3
12203.74,3.3
12205.74,3.3
12207.74,3.3
12209.74,3.3
12211.74,3.3
12213.74,3.3
12215.74,3.3
12216.74,3.3
12218.74,3.3
12220.74,3.3
12222.74,3.3
12224.74,3.3
12226.74,3.3
12228.74,3.3
12230.74,3.3
12232.74,3.09
12234.74,2.63
12236.74,2.55
12238.74,2.47
12240.74,2.8
12242.74,2.77
12245.74,2.22
12247.74,1.77
12249.74,1.47
12251.74,1.22
12253.74,1.65
12255.74,1.89
12257.74,2.19
12258.74,2.33
12260.74,2.32
12262.74,1.76
12264.74,1.56
12266.74,1.45
12268.74,1.78
12270.74,2.09
12272.74,2.24
12274.74,2.09
12276.74,2.09
12278.74,2.39
12280.74,2.98
12282.74,3.3
12284.74,3.26
12287.74,3.0
12289.74,3.3
12291.74,3.3
12293.74,3.3
12295.74,3.3
12297.74,3.3
12299.74,3.3
12300.74,3.3
12302.74,3.3
12304.74,3.3
12306.74,3.3
12308.74,3.3
12310.74,3.3
12312.74,3.3
12314.74,3.3
12316.74,3.3
12318.74,3.3
12320.74,3.3
12322.74,3.3
12324.74,3.3
12326.74,3.3
12329.74,3.3
12331.74,3.3
12333.74,3.3
12335.74,3.3
12337.74,3.3
12339.74,3.3
12341.74,3.3
12343.74,3.3
12344.74,3.3
12346.74,3.3
12348.74,3.3
12350.74,3.3
12352.74,3.3
12354.74,3.3
12356.74,3.3
12358.74,3.3
12360.74,3.3
12362.74,3.3
12364.74,3.3
12366.74,3.3
12368.74,3.3
12370.74,3.3
12373.74,3.3
12375.74,3.3
12377.74,3.3
12379.74,3.3
12381.74,3.3
12383.74,3.3
12385.74,3.3
12386.74,3.3
12388.74,3.3
12390.74,3.3
12392.74,3.3
12394.74,3.3
12396.74,3.3
12398.74,3.3
12400.74,3.3
12402.74,3.3
12404.74,3.3
12406.74,3.3
12408.74,3.3
12410.74,3.3
12412.74,3.3
12415.74,3.3
12417.74,3.3
12419.74,3.3
12421.74,3.3
12423.74,3.3
12425.74,3.3
12427.74,3.3
12428.74,2.87
12430.74,1.04
12432.74,0.0
12434.74,0.0
12436.74,0.0
12438.74,0.0
12440.74,0.0
12442.74,0.0
12444.74,0.0
12446.74,0.0
12448.74,0.0
12450.74,0.0
12452.74,0.0
12454.74,0.0
12457.74,0.0
12459.74,0.0
12461.74,0.0
12463.74,0.0
12465.74,0.0
12467.74,0.0
12469.74,0.0
12471.74,0.0
12472.74,0.0
12474.74,0.0
12476.74,0.0
12478.74,0.0
12480.74,0.0
12482.74,0.0
12484.74,0.0
12486.74,0.0
12488.74,0.0
12490.74,0.0
12492.74,0.0
12494.74,0.0
12496.74,0.0
12498.74,0.0
12501.74,0.0
12503.74,0.0
12505.74,0.0
12507.74,0.0
12509.74,0.0
12511.74,0.0
12513.74,0.0
12514.74,0.0
12516.74,0.0
12518.74,0.0
12520.74,0.0
12522.74,0.0
12524.74,0.0
12526.74,0.0
12528.74,0.0
12530.74,0.0
12532.74,0.0
12534.74,0.0
12536.74,0.0
12538.74,0.0
12540.74,0.0
12543.74,0.0
12545.74,0.0
12547.74,0.0
12549.74,0.0
12551.74,0.0
12553.74,0.0
12555.74,0.0
12556.74,0.0
12558.74,0.0
12560.74,0.0
12562.74,0.0
12564.74,0.0
12566.74,0.0
12568.74,0.0
12570.74,0.0
12572.74,0.0
12574.74,0.0
12576.74,0.0
12578.74,0.0
12580.74,0.0
12582.74,0.0
12585.74,0.0
12587.74,0.0
12589.74,0.0
12591.74,0.0
12593.74,0.0
12595.74,0.0
12597.74,0.0
12599.74,0.0
12600.74,0.0
12602.74,0.0
12604.74,0.0
12606.74,0.0
12608.74,0.0
12610.74,0.0
12612.74,0.0
12614.74,0.0
12616.74,0.0
12618.74,0.0
12620.74,0.0
12622.74,0.0
12624.74,0.0
12626.74,0.0
12629.74,0.0
12631.74,0.0
12633.74,0.0
12635.74,0.0
12637.74,0.0
12639.74,0.0
12641.74,0.0
12642.74,0.0
12644.74,0.0
12646.74,0.0
12648.74,0.0
12650.74,0.0
12652.74,0.0
12654.74,0.0
12656.74,0.0
12658.74,0.03
12660.74,0.44
12662.74,0.64
12664.74,0.56
12666.74,0.0
12668.74,0.0
12671.74,0.15
12673.74,0.54
12675.74,0.71
12677.74,1.26
12679.74,1.54
12681.74,1.6
12683.74,1.33
12684.74,0.9
12686.74,0.23
12688.74,0.23
12690.74,0.31
12692.74,0.65
12694.74,1.05
12696.74,1.4
12698.74,1.53
12700.74,1.97
12702.74,2.06
12704.74,1.94
12706.74,1.5
12708.74,1.33
12710.74,1.53
12713.74,1.98
12715.74,2.26
12717.74,2.39
12719.74,2.5
12721.74,2.93
12723.74,3.21
12725.74,2.84
12727.74,2.6
12728.74,2.33
12730.74,1.67
12732.74,1.38
12734.74,1.31
12736.74,1.48
12738.74,1.96
12740.74,2.12
12742.74,2.16
12744.74,2.35
12746.74,2.91
12748.74,3.3
12750.74,3.3
12752.74,3.3
12754.74,3.11
12757.74,3.3
12759.74,3.3
12761.74,3.3
12763.74,3.17
12765.74,3.3
12767.74,2.75
12769.74,3.28
12770.74,3.3
12772.74,3.3
12774.74,3.3
12776.74,3.3
12778.74,3.3
12780.74,3.3
12782.74,3.3
12784.74,3.3
12786.74,3.3
12788.74,3.3
12790.74,3.3
12792.74,3.3
12794.74,3.3
12796.74,3.3
12799.74,2.64
12801.74,1.92
12803.74,1.07
12805.74,0.83
12807.74,0.74
12809.74,0.0
12811.74,0.0
12812.74,0.0
12814.74,0.0
12816.74,0.0
12818.74,0.0
12820.74,0.0
12822.74,0.0
12824.74,0.0
12826.74,0.0
12828.74,0.0
12830.74,0.0
12832.74,0.0
12834.74,0.0
12836.74,0.0
12838.74,0.0
12841.74,0.0
12843.74,0.0
12845.74,0.0
12847.74,0.0
12849.74,0.0
12851.74,0.0
12853.74,0.0
12855.74,0.0
12856.74,0.0
12858.74,0.0
12860.74,0.37
12862.74,0.21
12864.74,0.0
12866.74,0.0
12868.74,0.0
12870.74,0.0
12872.74,0.0
12874.74,0.0
12876.74,0.0
12878.74,0.0
12880.74,0.0
12882.74,0.0
12885.74,0.0
12887.74,0.0
12889.74,0.0
12891.74,0.0
12893.74,0.0
12895.74,0.0
12897.74,0.0
12898.74,0.0
12900.74,0.0
12902.74,0.0
12904.74,0.0
12906.74,0.0
12908.74,0.0
12910.74,0.0
12912.74,0.0
12914.74,0.0
12916.74,0.0
12918.74,0.0
12920.74,0.04
12922.74,0.2
12924.74,0.37
12927.74,0.53
12929.74,0.68
12931.74,0.82
12933.74,0.96
12935.74,1.08
12937.74,1.2
12939.74,1.3
12940.74,1.41
12942.74,1.51
12944.74,1.58
12946.74,1.64
12948.74,1.7
12950.74,1.76
12952.74,1.82
12954.74,1.88
12956.74,1.94
12958.74,2.0
12960.74,2.06
12962.74,2.06
12964.74,2.07
12966.74,2.09
12969.74,2.12
12971.74,2.14
12973.74,2.16
12975.74,2.18
12977.74,2.2
12979.74,2.22
12981.74,2.23
12983.74,2.24
12984.74,2.24
12986.74,2.25
12988.74,2.25
12990.74,2.25
12992.74,2.26
12994.74,2.26
12996.74,2.26
12998.74,2.27
13000.74,2.26
13002.74,2.26
13004.74,2.25
13006.74,2.25
13008.74,2.24
13010.74,2.24
13013.74,2.23
13015.74,2.23
13017.74,2.23
13019.74,2.22
13021.74,2.21
13023.74,2.2
13025.74,2.19
13026.74,2.18
13028.74,2.17
13030.74,2.16
13032.74,2.16
13034.74,2.15
13036.74,2.15
13038.74,2.14
13040.74,2.13
13042.74,2.12
13044.74,2.1
13046.74,2.09
13048.74,2.08
13050.74,2.07
13052.74,2.06
13055.74,2.05
13057.74,2.05
13059.74,2.04
13061.74,2.03
13063.74,2.02
13065.74,2.01
13067.74,1.99
13068.74,1.98
13070.74,1.98
13072.74,1.97
13074.74,1.96
13076.74,1.95
13078.74,1.95
13080.74,1.94
13082.74,1.93
13084.74,1.92
13086.74,1.91
13088.74,1.9
13090.74,1.89
13092.74,1.89
13094.74,1.88
13097.74,1.88
13099.74,1.87
13101.74,1.86
13103.74,1.85
13105.74,1.84
13107.74,1.83
13109.74,1.82
13111.74,1.82
13112.74,1.81
13114.74,1.81
13116.74,1.8
13118.74,1.8
13120.74,1.79
13122.74,1.78
13124.74,1.77
13126.74,1.76
13128.74,1.76
13130.74,1.75
13132.74,1.75
13134.74,1.75
13136.74,1.74
13138.74,1.74
13141.74,1.74
13143.74,1.73
13145.74,1.72
13147.74,1.71
13149.74,1.7
13151.74,1.7
13153.74,1.7
13154.74,1.69
13156.74,1.69
13158.74,1.69
13160.74,1.69
13162.74,1.68
13164.74,1.67
13166.74,1.66
13168.74,1.66
13170.74,1.66
13172.74,1.66
13174.74,1.65
13176.74,1.65
13178.74,1.65
13180.74,1.65
13183.74,1.64
13185.74,1.64
13187.74,1.63
13189.74,1.63
13191.74,1.62
13193.74,1.62
13195.74,1.62
13196.74,1.62
13198.74,1.62
13200.74,1.62
13202.74,1.61
13204.74,1.61
13206.74,1.6
13208.74,1.6
13210.74,1.59
13212.74,1.59
13214.74,1.59
13216.74,1.59
13218.74,1.59
13220.74,1.59
13222.74,1.59
13225.74,1.58
13227.74,1.57
13229.74,1.57
13231.74,1.57
13233.74,1.57
13235.74,1.57
13237.74,1.57
13239.74,1.57
13240.74,1.57
13242.74,1.57
13244.74,1.56
13246.74,1.55
13248.74,1.55
13250.74,1.55
13252.74,1.55
13254.74,1.55
13256.74,1.55
13258.74,1.55
13260.74,1.55
13262.74,1.55
13264.74,1.55
13266.74,1.54
13269.74,1.54
13271.74,1.54
13273.74,1.54
13275.74,1.54
13277.74,1.54
13279.74,1.54
13281.74,1.54
13282.74,1.54
13284.74,1.53
13286.74,1.53
13288.74,1.53
13290.74,1.53
13292.74,1.53
13294.74,1.53
13296.74,1.53
13298.74,1.53
13300.74,1.53
13302.74,1.52
13304.74,1.52
13306.74,1.52
13308.74,1.51
13311.74,1.52
13313.74,1.52
13315.74,1.52
13317.74,1.52
13319.74,1.52
13321.74,1.52
13323.74,1.52
13325.74,1.51
13326.74,1.51
13328.74,1.51
13330.74,1.51
13332.74,1.51
13334.74,1.51
13336.74,1.51
13338.74,1.51
13340.74,1.51
13342.74,1.51
13344.74,1.51
13346.74,1.5
13348.74,1.5
13350.74,1.5
13353.74,1.5
13355.74,1.5
13357.74,1.51
13359.74,1.51
13361.74,1.51
13363.74,1.5
13365.74,1.5
13367.74,1.5
13368.74,1.5
13370.74,1.5
13372.74,1.5
13374.74,1.5
13376.74,1.5
13378.74,1.5
13380.74,1.5
13382.74,1.5
13384.74,1.5
13386.74,1.49
13388.74,1.49
13390.74,1.49
13392.74,1.49
13394.74,1.49
13397.74,1.5
13399.74,1.5
13401.74,1.5
13403.74,1.5
13405.74,1.49
13407.74,1.49
13409.74,1.49
13410.74,1.49
13412.74,1.49
13414.74,1.49
13416.74,1.49
13418.74,1.5
13420.74,1.5
13422.74,1.49
13424.74,1.49
13426.74,1.49
13428.74,1.48
13430.74,1.49
13432.74,1.49
13434.74,1.49
13436.74,1.49
13439.74,1.49
13441.74,1.49
13443.74,1.49
13445.74,1.49
13447.74,1.48
13449.74,1.48
13451.74,1.48
13453.74,1.49
13454.74,1.49
13456.74,1.49
13458.74,1.49
13460.74,1.49
13462.74,1.49
13464.74,1.49
13466.74,1.48
13468.74,1.48
13470.74,1.48
13472.74,1.48
13474.74,1.49
13476.74,1.49
13478.74,1.49
13481.74,1.49
13483.74,1.49
13485.74,1.49
13487.74,1.48
13489.74,1.48
13491.74,1.48
13493.74,1.49
13495.74,1.49
13496.74,1.49
13498.74,1.51
13500.74,1.65
13502.74,1.74
13504.74,1.88
13506.74,1.99
13508.74,2.83
13510.74,3.3
13512.74,3.3
13514.74,3.3
13516.74,3.3
13518.74,3.3
13520.74,3.3
13522.74,3.3
13525.74,3.3
13527.74,3.3
13529.74,3.3
13531.74,3.3
13533.74,3.3
13535.74,3.3
13537.74,3.3
13538.74,3.3
13540.74,3.3
13542.74,3.3
13544.74,3.3
13546.74,3.3
13548.74,3.3
13550.74,3.3
13552.74,3.3
13554.74,2.82
13556.74,0.0
13558.74,0.0
13560.74,0.0
13562.74,0.0
13564.74,0.0
13567.74,0.0
13569.74,0.0
13571.74,0.0
13573.74,0.0
13575.74,0.0
13577.74,0.0
13579.74,0.0
13581.74,0.0
13582.74,0.0
13584.74,0.0
13586.74,0.0
13588.74,0.0
13590.74,0.0
13592.74,0.0
13594.74,0.0
13596.74,0.0
13598.74,0.0
13600.74,0.0
13602.74,0.0
13604.74,0.0
13606.74,0.0
13609.74,0.0
13611.74,0.0
13613.74,0.0
13615.74,0.0
13617.74,0.0
13619.74,0.0
13621.74,0.0
13623.74,0.1
13624.74,0.22
13626.74,0.32
13628.74,0.43
13630.74,0.53
13632.74,0.62
13634.74,0.71
13636.74,0.79
13638.74,0.86
13640.74,0.93
13642.74,0.99
13644.74,1.05
13646.74,1.1
13648.74,1.15
13650.74,1.2
13653.74,1.25
13655.74,1.29
13657.74,1.33
13659.74,1.37
13661.74,1.4
13663.74,1.43
13665.74,1.45
13666.74,1.47
13668.74,1.5
13670.74,1.52
13672.74,1.54
13674.74,1.56
13676.74,1.58
13678.74,1.59
13680.74,1.61
13682.74,1.62
13684.74,1.62
13686.74,1.63
13688.74,1.64
13690.74,1.65
13692.74,1.66
13695.74,1.66
13697.74,1.67
13699.74,1.68
13701.74,1.68
13703.74,1.69
13705.74,1.68
13707.74,1.68
13709.74,1.69
13710.74,1.69
13712.74,1.69
13714.74,1.69
13716.74,1.7
13718.74,1.7
13720.74,1.7
13722.74,1.7
13724.74,1.69
13726.74,1.69
13728.74,1.69
13730.74,1.69
13732.74,1.69
13734.74,1.69
13737.74,1.69
13739.74,1.69
13741.74,1.68
13743.74,1.68
13745.74,1.67
13747.74,1.67
13749.74,1.67
13751.74,1.67
13752.74,1.67
13754.74,1.66
13756.74,1.66
13758.74,1.66
13760.74,1.66
13762.74,1.65
13764.74,1.65
13766.74,1.65
13768.74,1.64
13770.74,1.64
13772.74,1.64
13774.74,1.64
13776.74,1.64
13778.74,1.64
13781.74,1.64
13783.74,1.63
13785.74,1.62
13787.74,1.62
13789.74,1.62
13791.74,1.61
13793.74,1.61
13794.74,1.61
13796.74,1.61
13798.74,1.61
13800.74,1.61
13802.74,1.6
13804.74,1.6
13806.74,1.59
13808.74,1.59
13810.74,1.59
13812.74,1.59
13814.74,1.59
13816.74,1.59
13818.74,1.59
13820.74,1.59
13823.74,1.58
13825.74,1.57
13827.74,1.57
13829.74,1.57
13831.74,1.57
13833.74,1.57
13835.74,1.57
13837.74,1.57
13838.74,1.57
13840.74,1.57
13842.74,1.56
13844.74,1.56
13846.74,1.55
13848.74,1.55
13850.74,1.55
13852.74,1.55
13854.74,1.55
13856.74,1.55
13858.74,1.55
13860.74,1.55
13862.74,1.55
13865.74,1.54
13867.74,1.54
13869.74,1.54
13871.74,1.54
13873.74,1.54
13875.74,1.54
13877.74,1.54
13879.74,1.54
13880.74,1.54
13882.74,1.53
13884.74,1.53
13886.74,1.53
13888.74,1.52
13890.74,1.52
13892.74,1.53
13894.74,1.53
13896.74,1.53
13898.74,1.53
13900.74,1.53
13902.74,1.52
13904.74,1.52
13906.74,1.52
13909.74,1.51
13911.74,1.51
13913.74,1.52
13915.74,1.52
13917.74,1.52
13919.74,1.52
13921.74,1.52
13922.74,1.51
13924.74,1.51
13926.74,1.51
13928.74,1.51
13930.74,1.51
13932.74,1.51
13934.74,1.51
13936.74,1.51
13938.74,1.51
13940.74,1.51
13942.74,1.51
13944.74,1.5
13946.74,1.5
13948.74,1.5
13951.74,1.5
13953.74,1.5
13955.74,1.5
13957.74,1.5
13959.74,1.51
13961.74,1.5
13963.74,1.5
13965.74,1.5
13966.74,1.49
13968.74,1.49
13970.74,1.49
13972.74,1.5
13974.74,1.5
13976.74,1.5
13978.74,1.5
13980.74,1.5
13982.74,1.5
13984.74,1.49
13986.74,1.49
13988.74,1.49
13990.74,1.49
13993.74,1.49
13995.74,1.49
13997.74,1.5
13999.74,1.5
14001.74,1.5
14003.74,1.49
14005.74,1.49
14007.74,1.49
14008.74,1.49
14010.74,1.49
14012.74,1.49
14014.74,1.49
14016.74,1.49
14018.74,1.49
14020.74,1.49
14022.74,1.49
14024.74,1.49
14026.74,1.48
14028.74,1.48
14030.74,1.48
14032.74,1.49
14034.74,1.49
14037.74,1.49
14039.74,1.49
14041.74,1.49
14043.74,1.49
14045.74,1.48
14047.74,1.48
14049.74,1.48
14050.74,1.48
14052.74,1.48
14054.74,1.49
14056.74,1.49
14058.74,1.49
14060.74,1.49
14062.74,1.49
14064.74,1.48
14066.74,1.48
14068.74,1.48
14070.74,1.48
14072.74,1.48
14074.74,1.48
14076.74,1.49
14079.74,1.49
14081.74,1.49
14083.74,1.48
14085.74,1.48
14087.74,1.48
14089.74,1.48
14091.74,1.48
14093.74,1.48
14094.74,1.48
14096.74,1.48
14098.74,1.49
14100.74,1.49
14102.74,1.48
14104.74,1.48
14106.74,1.48
14108.74,1.48
14110.74,1.48
14112.74,1.48
14114.74,1.48
14116.74,1.48
14118.74,1.49
14121.74,1.48
14123.74,1.48
14125.74,1.48
14127.74,1.48
14129.74,1.48
14131.74,1.48
14133.74,1.48
14135.74,1.48
14136.74,1.48
14138.74,1.48
14140.74,1.48
14142.74,1.48
14144.74,1.48
14146.74,1.47
14148.74,1.47
14150.74,1.48
14152.74,1.48
14154.74,1.48
14156.74,1.48
14158.74,1.48
14160.74,1.48
14162.74,1.48
14165.74,1.48
14167.74,1.47
14169.74,1.47
14171.74,1.48
14173.74,1.48
14175.74,1.48
14177.74,1.48
14178.74,1.48
14180.74,1.48
14182.74,1.48
14184.74,1.48
14186.74,1.47
14188.74,1.47
14190.74,1.48
14192.74,1.48
14194.74,1.48
14196.74,1.48
14198.74,1.48
14200.74,1.48
14202.74,1.48
14204.74,1.48
14207.74,1.47
14209.74,1.47
14211.74,1.47
14213.74,1.48
14215.74,1.48
14217.74,1.48
14219.74,1.48
14221.74,1.48
14222.74,1.48
14224.74,1.47
14226.74,1.47
14228.74,1.47
14230.74,1.47
14232.74,1.48
14234.74,1.48
14236.74,1.48
14238.74,1.48
14240.74,1.48
14242.74,1.48
14244.74,1.47
14246.74,1.47
14249.74,1.47
14251.74,1.47
14253.74,1.47
14255.74,1.48
14257.74,1.48
14259.74,1.48
14261.74,1.48
14263.74,1.48
14264.74,1.47
14266.74,1.47
14268.74,1.47
14270.74,1.47
14272.74,1.48
14274.74,1.48
14276.74,1.48
14278.74,1.48
14280.74,1.48
14282.74,1.48
14284.74,1.47
14286.74,1.47
14288.74,1.47
14290.74,1.47
14293.74,1.47
14295.74,1.48
14297.74,1.48
14299.74,1.48
14301.74,1.48
14303.74,1.48
14305.74,1.47
14306.74,1.47
14308.74,1.47
14310.74,1.47
14312.74,1.47
14314.74,1.48
14316.74,1.48
14318.74,1.48
14320.74,1.48
14322.74,1.48
14324.74,1.47
14326.74,1.47
14328.74,1.47
14330.74,1.47
14332.74,1.47
14335.74,1.48
14337.74,1.48
14339.74,1.48
14341.74,1.48
14343.74,1.48
14345.74,1.47
14347.74,1.47
14349.74,1.47
14350.74,1.47
14352.74,1.47
14354.74,1.48
14356.74,1.48
14358.74,1.48
14360.74,1.48
14362.74,1.48
14364.74,1.47
14366.74,1.47
14368.74,1.47
14370.74,1.47
14372.74,1.47
14374.74,1.48
14377.74,1.48
14379.74,1.48
14381.74,1.48
14383.74,1.48
14385.74,1.47
14387.74,1.47
14389.74,1.47
14391.74,1.47
14392.74,1.47
14394.74,1.48
14396.74,1.48
14398.74,1.48
14400.74,1.48
14402.74,1.48
14404.74,1.47
14406.74,1.47
14408.74,1.47
14410.74,1.47
14412.74,1.48
14414.74,1.48
14416.74,1.48
14418.74,1.48
14421.74,1.48
14423.74,1.48
14425.74,1.47
14427.74,1.47
14429.74,1.47
14431.74,1.47
14433.74,1.48
14435.74,1.48
14436.74,1.48
14438.74,1.48
14440.74,1.48
14442.74,1.49
14444.74,1.76
14446.74,2.86
14448.74,3.3
14450.74,3.3
14452.74,3.3
14454.74,3.3
14456.74,3.3
14458.74,3.3
14460.74,3.3
14463.74,3.3
14465.74,3.3
14467.74,3.3
14469.74,3.3
14471.74,3.3
14473.74,3.3
14475.74,3.3
14477.74,3.3
14478.74,3.3
14480.74,3.3
14482.74,3.3
14484.74,3.3
14486.74,3.3
14488.74,3.3
14490.74,3.3
14492.74,3.3
14494.74,3.3
14496.74,3.3
14498.74,3.3
14500.74,3.3
14502.74,3.28
14505.74,2.05
14507.74,2.91
14509.74,3.3
14511.74,3.3
14513.74,3.3
14515.74,3.3
14517.74,3.3
14519.74,3.3
14520.74,3.3
14522.74,3.26
14524.74,3.23
14526.74,3.3
14528.74,3.3
14530.74,3.3
14532.74,3.3
14534.74,3.3
14536.74,3.3
14538.74,3.3
14540.74,3.3
14542.74,3.3
14544.74,3.3
14546.74,3.3
14549.74,3.3
14551.74,3.3
14553.74,3.3
14555.74,3.3
14557.74,3.3
14559.74,3.3
14561.74,3.3
14563.74,3.3
14564.74,3.3
14566.74,3.3
14568.74,3.3
14570.74,3.3
14572.74,3.3
14574.74,3.3
14576.74,3.3
14578.74,3.3
14580.74,3.3
14582.74,3.3
14584.74,3.3
14586.74,3.3
14588.74,3.3
14591.74,3.3
14593.74,3.3
14595.74,3.3
14597.74,3.3
14599.74,3.3
14601.74,3.3
14603.74,3.3
14605.74,3.3
14606.74,3.3
14608.74,3.3
14610.74,3.3
14612.74,3.3
14614.74,3.2
14616.74,2.64
14618.74,2.07
14620.74,2.14
14622.74,1.19
14624.74,0.0
14626.74,0.0
14628.74,0.0
14630.74,0.0
14633.74,0.0
14635.74,0.0
14637.74,0.0
14639.74,0.0
14641.74,0.0
14643.74,0.0
14645.74,0.0
14647.74,0.0
14648.74,0.0
14650.74,0.0
14652.74,0.0
14654.74,0.0
14656.74,0.0
14658.74,0.0
14660.74,0.0
14662.74,0.0
14664.74,0.0
14666.74,0.0
14668.74,0.0
14670.74,0.0
14672.74,0.0
14674.74,0.0
14677.74,0.0
14679.74,0.0
14681.74,0.0
14683.74,0.0
14685.74,0.0
14687.74,0.0
14689.74,0.0
14691.74,0.0
14692.74,0.0
14694.74,0.0
14696.74,0.0
14698.74,0.0
14700.74,0.0
14702.74,0.0
14704.74,0.0
14706.74,0.0
14708.74,0.0
14710.74,0.0
14712.74,0.0
14714.74,0.0
14716.74,0.0
14719.74,0.0
14721.74,0.0
14723.74,0.0
14725.74,0.0
14727.74,0.0
14729.74,0.0
14731.74,0.0
14733.74,0.0
14734.74,0.0
14736.74,0.0
14738.74,0.0
14740.74,0.0
14742.74,0.0
14744.74,0.0
14746.74,0.0
14748.74,0.0
14750.74,0.0
14752.74,0.0
14754.74,0.0
14756.74,0.0
14758.74,0.0
14761.74,0.0
14763.74,0.0
14765.74,0.0
14767.74,0.0
14769.74,0.0
14771.74,0.0
14773.74,0.0
14775.74,0.0
14776.74,0.0
14778.74,0.0
14780.74,0.0
14782.74,0.0
14784.74,0.0
14786.74,0.0
14788.74,0.0
14790.74,0.0
14792.74,0.0
14794.74,0.0
14796.74,0.0
14798.74,0.0
14800.74,0.0
14802.74,0.0
14805.74,0.0
14807.74,0.0
14809.74,0.0
14811.74,0.0
14813.74,0.0
14815.74,0.0
14817.74,0.0
14819.74,0.0
14820.74,0.0
14822.74,0.0
14824.74,0.0
14826.74,0.07
14828.74,0.21
14830.74,0.34
14832.74,0.47
14834.74,0.59
14836.74,0.7
14838.74,0.8
14840.74,0.91
14842.74,1.0
14844.74,1.05
14847.74,1.12
14849.74,1.21
14851.74,1.33
14853.74,1.79
14855.74,2.77
14857.74,3.3
14859.74,3.19
14861.74,3.3
14862.74,3.3
14864.74,2.6
14866.74,1.56
14868.74,1.84
14870.74,2.54
14872.74,2.78
14874.74,2.51
14876.74,1.96
14878.74,1.16
14880.74,0.63
14882.74,0.63
14884.74,0.71
14886.74,0.8
14889.74,0.88
14891.74,0.96
14893.74,1.04
14895.74,1.11
14897.74,1.17
14899.74,1.23
14901.74,1.28
14903.74,1.33
14904.74,1.37
14906.74,1.41
14908.74,1.45
14910.74,1.48
14912.74,1.51
14914.74,1.55
14916.74,1.57
14918.74,1.6
14920.74,1.62
14922.74,1.64
14924.74,1.65
14926.74,1.67
14928.74,1.68
14930.74,1.7
14933.74,1.71
14935.74,1.73
14937.74,1.74
14939.74,1.75
14941.74,1.75
14943.74,1.76
14945.74,1.76
14947.74,1.76
14948.74,1.77
14950.74,1.77
14952.74,1.78
14954.74,1.78
14956.74,1.79
14958.74,1.79
14960.74,1.79
14962.74,1.79
14964.74,1.78
14966.74,1.78
14968.74,1.78
14970.74,1.78
14972.74,1.78
14975.74,1.78
14977.74,1.78
14979.74,1.78
14981.74,1.78
14983.74,1.77
14985.74,1.76
14987.74,1.76
14989.74,1.76
14990.74,1.75
14992.74,1.75
14994.74,1.75
14996.74,1.75
14998.74,1.77
15000.74,2.84
15002.74,3.3
15004.74,3.25
15006.74,3.14
15008.74,3.21
15010.74,3.3
15012.74,3.3
15014.74,3.3
15017.74,3.3
15019.74,3.3
15021.74,3.3
15023.74,3.3
15025.74,3.3
15027.74,3.3
15029.74,3.3
15031.74,3.3
15032.74,3.3
15034.74,3.3
15036.74,3.3
15038.74,3.3
15040.74,3.3
15042.74,3.3
15044.74,3.3
15046.74,3.17
15048.74,2.5
15050.74,2.44
15052.74,2.33
15054.74,2.54
15056.74,2.66
15058.74,2.43
15061.74,2.45
15063.74,1.9
15065.74,1.36
15067.74,0.8
15069.74,0.7
15071.74,1.17
15073.74,2.21
15075.74,3.08
15076.74,3.02
15078.74,2.88
15080.74,2.31
15082.74,2.45
15084.74,2.16
15086.74,2.33
15088.74,2.59
15090.74,2.76
15092.74,2.73
15094.74,2.61
15096.74,2.59
15098.74,2.97
15100.74,3.3
15103.74,3.3
15105.74,3.3
15107.74,3.17
15109.74,3.3
15111.74,3.3
15113.74,3.3
15115.74,3.3
15117.74,3.3
15118.74,3.3
15120.74,3.3
15122.74,3.3
15124.74,3.3
15126.74,3.3
15128.74,3.3
15130.74,3.3
15132.74,3.3
15134.74,3.18
15136.74,1.95
15138.74,1.46
15140.74,1.45
15142.74,1.58
15145.74,1.71
15147.74,1.98
15149.74,1.93
15151.74,1.9
15153.74,2.32
15155.74,2.0
15157.74,1.74
15159.74,1.63
15160.74,1.08
15162.74,0.67
15164.74,0.0
15166.74,0.0
15168.74,0.0
15170.74,0.0
15172.74,0.0
15174.74,0.0
15176.74,0.0
15178.74,0.0
15180.74,0.0
15182.74,0.0
15184.74,0.0
15186.74,0.0
15189.74,0.0
15191.74,0.0
15193.74,0.0
15195.74,0.0
15197.74,0.0
15199.74,0.0
15201.74,0.0
15203.74,0.0
15204.74,0.0
15206.74,0.0
15208.74,0.0
15210.74,0.0
15212.74,0.0
15214.74,0.0
15216.74,0.0
15218.74,0.0
15220.74,0.0
15222.74,0.0
15224.74,0.0
15226.74,0.0
15228.74,0.0
15231.74,0.0
15233.74,0.0
15235.74,0.0
15237.74,0.0
15239.74,0.0
15241.74,0.0
15243.74,0.0
15245.74,0.0
15246.74,0.0
15248.74,0.0
15250.74,0.0
15252.74,0.0
15254.74,0.0
15256.74,0.0
15258.74,0.0
15260.74,0.0
15262.74,0.0
15264.74,0.0
15266.74,0.0
15268.74,0.0
15270.74,0.0
15273.74,0.11
15275.74,0.22
15277.74,0.34
15279.74,0.44
15281.74,0.54
15283.74,0.62
15285.74,0.7
15287.74,0.78
15288.74,0.85
15290.74,0.93
15292.74,0.99
15294.74,1.05
15296.74,1.11
15298.74,1.16
15300.74,1.2
15302.74,1.25
15304.74,1.28
15306.74,1.32
15308.74,1.35
15310.74,1.39
15312.74,1.42
15314.74,1.45
15317.74,1.47
15319.74,1.5
15321.74,1.52
15323.74,1.53
15325.74,1.55
15327.74,1.56
15329.74,1.58
15331.74,1.59
15332.74,1.61
15334.74,1.62
15336.74,1.63
15338.74,1.64
15340.74,1.65
15342.74,1.65
15344.74,1.66
15346.74,1.66
15348.74,1.67
15350.74,1.67
15352.74,1.68
15354.74,1.68
15356.74,1.69
15359.74,1.69
15361.74,1.69
15363.74,1.69
15365.74,1.69
15367.74,1.69
15369.74,1.69
15371.74,1.69
15373.74,1.69
15374.74,1.69
15376.74,1.69
15378.74,1.69
15380.74,1.69
15382.74,1.69
15384.74,1.68
15386.74,1.68
15388.74,1.68
15390.74,1.67
15392.74,1.67
15394.74,1.67
15396.74,1.67
15398.74,1.67
15401.74,1.67
15403.74,1.66
15405.74,1.66
15407.74,1.65
15409.74,1.65
15411.74,1.65
15413.74,1.65
15415.74,1.65
15416.74,1.65
15418.74,1.65
15420.74,1.65
15422.74,1.64
15424.74,1.63
15426.74,1.63
15428.74,1.63
15430.74,1.63
15432.74,1.63
15434.74,1.63
15436.74,1.62
15438.74,1.62
15440.74,1.62
15442.74,1.61
15445.74,1.61
15447.74,1.6
15449.74,1.6
15451.74,1.6
15453.74,1.6
15455.74,1.6
15457.74,1.6
15459.74,1.6
15460.74,1.59
15462.74,1.59
15464.74,1.58
15466.74,1.58
15468.74,1.58
15470.74,1.58
15472.74,1.58
15474.74,1.58
15476.74,1.58
15478.74,1.57
15480.74,1.57
15482.74,1.57
15484.74,1.56
15487.74,1.56
15489.74,1.56
15491.74,1.56
15493.74,1.56
15495.74,1.56
15497.74,1.56
15499.74,1.56
15501.74,1.55
15502.74,1.55
15504.74,1.55
15506.74,1.54
15508.74,1.54
15510.74,1.54
15512.74,1.54
15514.74,1.54
15516.74,1.54
15518.74,1.55
15520.74,1.54
15522.74,1.54
15524.74,1.53
15526.74,1.53
15529.74,1.53
15531.74,1.53
15533.74,1.53
15535.74,1.53
15537.74,1.53
15539.74,1.53
15541.74,1.53
15543.74,1.53
15545.74,1.52
15546.74,1.52
15548.74,1.52
15550.74,1.52
15552.74,1.52
15554.74,1.52
15556.74,1.52
15558.74,1.52
15560.74,1.52
15562.74,1.52
15564.74,1.51
15566.74,1.51
15568.74,1.51
15570.74,1.51
15573.74,1.51
15575.74,1.51
15577.74,1.51
15579.74,1.51
15581.74,1.51
15583.74,1.51
15585.74,1.5
15587.74,1.5
15588.74,1.5
15590.74,1.5
15592.74,1.51
15594.74,1.51
15596.74,1.51
15598.74,1.51
15600.74,1.51
15602.74,1.5
15604.74,1.5
15606.74,1.5
15608.74,1.5
15610.74,1.5
15612.74,1.5
15615.74,1.5
15617.74,1.5
15619.74,1.5
15621.74,1.5
15623.74,1.5
15625.74,1.49
15627.74,1.49
15629.74,1.49
15630.74,1.49
15632.74,1.49
15634.74,1.5
15636.74,1.5
15638.74,1.5
15640.74,1.5
15642.74,1.49
15644.74,1.49
15646.74,1.49
15648.74,1.49
15650.74,1.49
15652.74,1.49
15654.74,1.49
15657.74,1.49
15659.74,1.5
15661.74,1.49
15663.74,1.49
15665.74,1.49
15667.74,1.48
15669.74,1.48
15671.74,1.49
15673.74,1.49
15674.74,1.49
15676.74,1.49
15678.74,1.49
15680.74,1.49
15682.74,1.49
15684.74,1.48
15686.74,1.48
15688.74,1.48
15690.74,1.48
15692.74,1.48
15694.74,1.49
15696.74,1.49
15698.74,1.49
15701.74,1.49
15703.74,1.48
15705.74,1.48
15707.74,1.48
15709.74,1.48
15711.74,1.48
15713.74,1.48
15715.74,1.48
15716.74,1.49
15718.74,1.49
15720.74,1.49
15722.74,1.48
15724.74,1.48
15726.74,1.48
15728.74,1.48
15730.74,1.48
15732.74,1.48
15734.74,1.48
15736.74,1.49
15738.74,1.49
15740.74,1.48
15743.74,1.48
15745.74,1.48
15747.74,1.48
15749.74,1.48
15751.74,1.48
15753.74,1.48
15755.74,1.48
15757.74,1.48
15758.74,1.48
15760.74,1.48
15762.74,1.48
15764.74,1.48
15766.74,1.48
15768.74,1.48
15770.74,1.48
15772.74,1.48
15774.74,1.48
15776.74,1.48
15778.74,1.48
15780.74,1.48
15782.74,1.48
15785.74,1.48
15787.74,1.47
15789.74,1.48
15791.74,1.48
15793.74,1.48
15795.74,1.48
15797.74,1.48
15799.74,1.48
15801.74,1.48
15802.74,1.48
15804.74,1.48
15806.74,1.47
15808.74,1.48
15810.74,1.48
15812.74,1.48
15814.74,1.48
15816.74,1.48
15818.74,1.48
15820.74,1.48
15822.74,1.48
15824.74,1.47
15826.74,1.47
15829.74,1.47
15831.74,1.48
15833.74,1.48
15835.74,1.48
15837.74,1.48
15839.74,1.48
15841.74,1.48
15843.74,1.48
15844.74,1.47
15846.74,1.47
15848.74,1.47
15850.74,1.48
15852.74,1.48
15854.74,1.48
15856.74,1.48
15858.74,1.48
15860.74,1.48
15862.74,1.48
15864.74,1.47
15866.74,1.47
15868.74,1.47
15871.74,1.48
15873.74,1.48
15875.74,1.48
15877.74,1.48
15879.74,1.48
15881.74,1.48
15883.74,1.48
15885.74,1.47
15886.74,1.47
15888.74,1.47
15890.74,1.47
15892.74,1.48
15894.74,1.48
15896.74,1.48
15898.74,1.48
15900.74,1.48
15902.74,1.48
15904.74,1.47
15906.74,1.47
15908.74,1.47
15910.74,1.47
15913.74,1.48
15915.74,1.48
15917.74,1.48
15919.74,1.48
15921.74,1.48
15923.74,1.48
15925.74,1.47
15927.74,1.47
15929.74,1.47
15930.74,1.47
15932.74,1.48
15934.74,1.48
15936.74,1.48
15938.74,1.48
15940.74,1.48
15942.74,1.48
15944.74,1.47
15946.74,1.47
15948.74,1.47
15950.74,1.47
15952.74,1.48
15954.74,1.48
15957.74,1.48
15959.74,1.48
15961.74,1.48
15963.74,1.48
15965.74,1.47
15967.74,1.47
15969.74,1.47
15971.74,1.47
15972.74,1.48
15974.74,1.48
15976.74,1.48
15978.74,1.48
15980.74,1.48
15982.74,1.48
15984.74,1.47
15986.74,1.47
15988.74,1.47
15990.74,1.47
15992.74,1.47
15994.74,1.48
15996.74,1.48
15999.74,1.48
16001.74,1.48
16003.74,1.48
16005.74,1.47
16007.74,1.47
16009.74,1.47
16011.74,1.47
16013.74,1.48
16014.74,1.48
16016.74,1.48
16018.74,1.48
16020.74,1.48
16022.74,1.48
16024.74,1.47
16026.74,1.47
16028.74,1.47
16030.74,1.47
16032.74,1.48
16034.74,1.48
16036.74,1.48
16038.74,1.48
16041.74,1.48
16043.74,1.48
16045.74,1.47
16047.74,1.47
16049.74,1.47
16051.74,1.47
16053.74,1.48
16055.74,1.48
16057.74,1.48
16058.74,1.48
16060.74,1.48
16062.74,1.48
16064.74,1.47
16066.74,1.47
16068.74,1.47
16070.74,1.47
16072.74,1.48
16074.74,1.48
16076.74,1.48
16078.74,1.48
16080.74,1.48
16082.74,1.48
16085.74,1.47
16087.74,1.47
16089.74,1.47
16091.74,1.47
16093.74,1.48
16095.74,1.48
16097.74,1.48
16099.74,1.48
16100.74,1.48
16102.74,1.48
16104.74,1.47
16106.74,1.47
16108.74,1.47
16110.74,1.47
16112.74,1.48
16114.74,1.48
16116.74,1.48
16118.74,1.48
16120.74,1.48
16122.74,1.48
16124.74,1.47
16127.74,1.47
16129.74,1.47
16131.74,1.47
16133.74,1.48
16135.74,1.48
16137.74,1.48
16139.74,1.48
16141.74,1.48
16142.74,1.48
16144.74,1.47
16146.74,1.47
16148.74,1.47
16150.74,1.47
16152.74,1.48
16154.74,1.48
16156.74,1.48
16158.74,1.48
16160.74,1.48
16162.74,1.48
16164.74,1.47
16166.74,1.47
16169.74,1.47
16171.74,1.47
16173.74,1.48
16175.74,1.48
16177.74,1.48
16179.74,1.48
16181.74,1.48
16183.74,1.48
16185.74,1.47
16186.74,1.47
16188.74,1.47
16190.74,1.47
16192.74,1.47
16194.74,1.48
16196.74,1.48
16198.74,1.48
16200.74,1.48
16202.74,1.48
16204.74,1.47
16206.74,1.47
16208.74,1.47
16210.74,1.47
16213.74,1.48
16215.74,1.48
16217.74,1.48
16219.74,1.48
16221.74,1.48
16223.74,1.47
16225.74,1.47
16227.74,1.47
16228.74,1.47
16230.74,1.47
16232.74,1.47
16234.74,1.48
16236.74,1.48
16238.74,1.48
16240.74,1.48
16242.74,1.47
16244.74,1.47
16246.74,1.47
16248.74,1.47
16250.74,1.47
16252.74,1.47
16255.74,1.48
16257.74,1.48
16259.74,1.48
16261.74,1.48
16263.74,1.48
16265.74,1.47
16267.74,1.47
16269.74,1.47
16270.74,1.47
16272.74,1.48
16274.74,1.48
16276.74,1.48
16278.74,1.48
16280.74,1.48
16282.74,1.47
16284.74,1.47
16286.74,1.47
16288.74,1.47
16290.74,1.47
16292.74,1.47
16294.74,1.48
16297.74,1.48
16299.74,1.48
16301.74,1.48
16303.74,1.47
16305.74,1.47
16307.74,1.47
16309.74,1.47
16311.74,1.47
16313.74,1.47
16314.74,1.48
16316.74,1.48
16318.74,1.48
16320.74,1.48
16322.74,1.47
16324.74,1.47
16326.74,1.47
16328.74,1.47
16330.74,1.47
16332.74,1.47
16334.74,1.48
16336.74,1.48
16338.74,1.48
16341.74,1.48
16343.74,1.47
16345.74,1.47
16347.74,1.47
16349.74,1.47
16351.74,1.47
16353.74,1.47
16355.74,1.48
16356.74,1.48
16358.74,1.48
16360.74,1.48
16362.74,1.47
16364.74,1.47
16366.74,1.47
16368.74,1.47
16370.74,1.47
16372.74,1.47
16374.74,1.48
16376.74,1.48
16378.74,1.48
16380.74,1.48
16383.74,1.48
16385.74,1.47
16387.74,1.47
16389.74,1.47
16391.74,1.47
16393.74,1.47
16395.74,1.48
16397.74,1.48
16398.74,1.48
16400.74,1.48
16402.74,1.47
16404.74,1.47
16406.74,1.47
16408.74,1.47
16410.74,1.47
16412.74,1.47
16414.74,1.48
16416.74,1.48
16418.74,1.48
16420.74,1.48
16422.74,1.48
16425.74,1.47
16427.74,1.47
16429.74,1.47
16431.74,1.47
16433.74,1.48
16435.74,1.48
16437.74,1.48
16439.74,1.48
16441.74,1.48
16442.74,1.48
16444.74,1.47
16446.74,1.47
16448.74,1.47
16450.74,1.47
16452.74,1.47
16454.74,1.48
16456.74,1.48
16458.74,1.48
16460.74,1.48
16462.74,1.48
16464.74,1.47
16466.74,1.47
16469.74,1.47
16471.74,1.47
16473.74,1.48
16475.74,1.48
16477.74,1.48
16479.74,1.48
16481.74,1.48
16483.74,1.48
16484.74,1.47
16486.74,1.47
16488.74,1.47
16490.74,1.47
16492.74,1.48
16494.74,1.48
16496.74,1.48
16498.74,1.48
16500.74,1.48
16502.74,1.47
16504.74,1.47
16506.74,1.47
16508.74,1.47
16511.74,1.47
16513.74,1.47
16515.74,1.48
16517.74,1.48
16519.74,1.48
16521.74,1.48
16523.74,1.47
16525.74,1.47
16526.74,1.47
16528.74,1.47
16530.74,1.47
16532.74,1.48
16534.74,1.48
16536.74,1.48
16538.74,1.48
16540.74,1.48
16542.74,1.47
16544.74,1.47
16546.74,1.47
16548.74,1.47
16550.74,1.47
16553.74,1.47
16555.74,1.48
16557.74,1.48
16559.74,1.48
16561.74,1.48
16563.74,1.47
16565.74,1.47
16567.74,1.47
16569.74,1.47
16570.74,1.47
16572.74,1.48
16574.74,1.48
16576.74,1.48
16578.74,1.48
16580.74,1.48
16582.74,1.47
16584.74,1.47
16586.74,1.47
16588.74,1.47
16590.74,1.47
16592.74,1.47
16594.74,1.48
16597.74,1.48
16599.74,1.48
16601.74,1.48
16603.74,1.47
16605.74,1.47
16607.74,1.47
16609.74,1.47
16611.74,1.47
16612.74,1.47
16614.74,1.47
16616.74,1.48
16618.74,1.48
16620.74,1.48
16622.74,1.47
16624.74,1.47
16626.74,1.47
16628.74,1.47
16630.74,1.47
16632.74,1.47
16634.74,1.48
16636.74,1.48
16639.74,1.48
16641.74,1.48
16643.74,1.47
16645.74,1.47
16647.74,1.47
16649.74,1.47
16651.74,1.48
16653.74,1.48
16654.74,1.48
16656.74,1.48
16658.74,1.48
16660.74,1.48
16662.74,1.58
16664.74,3.09
16666.74,2.1
16668.74,1.38
16670.74,1.29
16672.74,1.3
16674.74,1.39
16676.74,3.26
16678.74,3.3
16681.74,3.3
16683.74,3.3
16685.74,3.3
16687.74,1.83
16689.74,0.21
16691.74,0.05
16693.74,0.12
16695.74,0.22
16697.74,0.32
16698.74,0.41
16700.74,0.49
16702.74,0.56
16704.74,0.63
16706.74,0.69
16708.74,0.76
16710.74,0.82
16712.74,0.87
16714.74,0.93
16716.74,0.97
16718.74,1.02
16720.74,1.06
16722.74,1.09
16725.74,1.13
16727.74,1.16
16729.74,1.19
16731.74,1.22
16733.74,1.25
16735.74,1.28
16737.74,1.3
16739.74,1.33
16740.74,1.34
16742.74,1.36
16744.74,1.37
16746.74,1.39
16748.74,1.4
16750.74,1.42
16752.74,1.43
16754.74,1.45
16756.74,1.46
16758.74,1.47
16760.74,1.47
16762.74,1.48
16764.74,1.48
16767.74,1.49
16769.74,1.5
16771.74,1.51
16773.74,1.51
16775.74,1.52
16777.74,1.53
16779.74,1.53
16781.74,1.53
16782.74,1.53
16784.74,1.53
16786.74,1.54
16788.74,1.54
16790.74,1.54
16792.74,1.55
16794.74,1.55
16796.74,1.55
16798.74,1.55
16800.74,1.55
16802.74,1.55
16804.74,1.55
16806.74,1.55
16809.74,1.55
16811.74,1.55
16813.74,1.55
16815.74,1.55
16817.74,1.55
16819.74,1.55
16821.74,1.55
16823.74,1.55
16825.74,1.55
16826.74,1.55
16828.74,1.55
16830.74,1.55
16832.74,1.55
16834.74,1.55
16836.74,1.55
16838.74,1.55
16840.74,1.55
16842.74,1.54
16844.74,1.54
16846.74,1.54
16848.74,1.54
16850.74,1.54
16853.74,1.54
16855.74,1.54
16857.74,1.54
16859.74,1.54
16861.74,1.54
16863.74,1.53
16865.74,1.53
16867.74,1.53
16868.74,1.53
16870.74,1.53
16872.74,1.53
16874.74,1.53
16876.74,1.53
16878.74,1.53
16880.74,1.53
16882.74,1.52
16884.74,1.52
16886.74,1.52
16888.74,1.52
16890.74,1.52
16892.74,1.52
16895.74,1.52
16897.74,1.52
16899.74,1.52
16901.74,1.52
16903.74,1.51
16905.74,1.51
16907.74,1.51
16909.74,1.51
16910.74,1.51
16912.74,1.51
16914.74,1.51
16916.74,1.52
16918.74,1.52
16920.74,1.51
16922.74,1.51
16924.74,1.5
16926.74,1.5
16928.74,1.5
16930.74,1.51
16932.74,1.51
16934.74,1.51
16937.74,1.51
16939.74,1.51
16941.74,1.51
16943.74,1.5
16945.74,1.5
16947.74,1.5
16949.74,1.5
16951.74,1.5
16953.74,1.5
16954.74,1.5
16956.74,1.5
16958.74,1.5
16960.74,1.5
16962.74,1.5
16964.74,1.49
16966.74,1.49
16968.74,1.49
16970.74,1.49
16972.74,1.49
16974.74,1.5
16976.74,1.5
16978.74,1.5
16981.74,1.5
16983.74,1.49
16985.74,1.49
16987.74,1.49
16989.74,1.49
16991.74,1.49
16993.74,1.49
16995.74,1.49
16996.74,1.49
16998.74,1.5
17000.74,1.49
17002.74,1.49
17004.74,1.48
17006.74,1.48
17008.74,1.49
17010.74,1.49
17012.74,1.49
17014.74,1.49
17016.74,1.49
17018.74,1.49
17020.74,1.49
17023.74,1.49
17025.74,1.48
17027.74,1.48
17029.74,1.48
17031.74,1.48
17033.74,1.49
17035.74,1.49
17037.74,1.49
17038.74,1.49
17040.74,1.49
17042.74,1.48
17044.74,1.48
17046.74,1.48
17048.74,1.48
17050.74,1.48
17052.74,1.48
17054.74,1.49
17056.74,1.49
17058.74,1.49
17060.74,1.48
17062.74,1.48
17065.74,1.48
17067.74,1.48
17069.74,1.48
17071.74,1.48
17073.74,1.48
17075.74,1.49
17077.74,1.49
17079.74,1.49
17081.74,1.48
17082.74,1.48
17084.74,1.48
17086.74,1.48
17088.74,1.48
17090.74,1.48
17092.74,1.48
17094.74,1.48
17096.74,1.49
17098.74,1.49
17100.74,1.48
17102.74,1.48
17104.74,1.48
17106.74,1.48
17109.74,1.48
17111.74,1.48
17113.74,1.48
17115.74,1.48
17117.74,1.48
17119.74,1.49
17121.74,1.48
17123.74,1.48
17124.74,1.48
17126.74,1.48
17128.74,1.48
17130.74,1.48
17132.74,1.48
17134.74,1.48
17136.74,1.48
17138.74,1.49
17140.74,1.48
17142.74,1.48
17144.74,1.47
17146.74,1.47
17148.74,1.48
17151.74,1.48
17153.74,1.48
17155.74,1.48
17157.74,1.48
17159.74,1.48
17161.74,1.48
17163.74,1.48
17165.74,1.47
17167.74,1.47
17168.74,1.47
17170.74,1.48
17172.74,1.48
17174.74,1.48
17176.74,1.48
17178.74,1.48
17180.74,1.48
17182.74,1.48
17184.74,1.47
17186.74,1.47
17188.74,1.47
17190.74,1.47
17193.74,1.48
17195.74,1.48
17197.74,1.48
17199.74,1.48
17201.74,1.48
17203.74,1.47
17205.74,1.47
17207.74,1.47
17209.74,1.47
17210.74,1.47
17212.74,1.48
17214.74,1.48
17216.74,1.48
17218.74,1.48
17220.74,1.48
17222.74,1.47
17224.74,1.47
17226.74,1.47
17228.74,1.47
17230.74,1.47
17232.74,1.48
17234.74,1.48
17237.74,1.48
17239.74,1.48
17241.74,1.48
17243.74,1.48
17245.74,1.47
17247.74,1.47
17249.74,1.47
17251.74,1.47
17252.74,1.48
17254.74,1.48
17256.74,1.48
17258.74,1.48
17260.74,1.48
17262.74,1.47
17264.74,1.47
17266.74,1.47
17268.74,1.47
17270.74,1.48
17272.74,1.48
17274.74,1.48
17276.74,1.48
17279.74,1.48
17281.74,1.48
17283.74,1.48
17285.74,1.47
17287.74,1.47
17289.74,1.47
17291.74,1.47
17293.74,1.48
17295.74,1.48
17296.74,1.48
17298.74,1.48
17300.74,1.48
17302.74,1.47
17304.74,1.47
17306.74,1.47
17308.74,1.47
17310.74,1.47
17312.74,1.48
17314.74,1.48
17316.74,1.48
17318.74,1.48
17321.74,1.48
17323.74,1.47
17325.74,1.47
17327.74,1.47
17329.74,1.47
17331.74,1.47
17333.74,1.47
17335.74,1.48
17337.74,1.48
17338.74,1.48
17340.74,1.48
17342.74,1.47
17344.74,1.47
17346.74,1.47
17348.74,1.47
17350.74,1.47
17352.74,1.48
17354.74,1.48
17356.74,1.48
17358.74,1.48
17360.74,1.48
17362.74,1.47
17365.74,1.47
17367.74,1.47
17369.74,1.47
17371.74,1.47
17373.74,1.47
17375.74,1.48
17377.74,1.48
17379.74,1.48
17380.74,1.48
17382.74,1.47
17384.74,1.47
17386.74,1.47
17388.74,1.47
17390.74,1.47
17392.74,1.48
17394.74,1.48
17396.74,1.48
17398.74,1.48
17400.74,1.48
17402.74,1.47
17404.74,1.47
17407.74,1.47
17409.74,1.47
17411.74,1.47
17413.74,1.48
17415.74,1.48
17417.74,1.48
17419.74,1.48
17421.74,1.48
17423.74,1.47
17424.74,1.47
17426.74,1.47
17428.74,1.47
17430.74,1.47
17432.74,1.48
17434.74,1.48
17436.74,1.48
17438.74,1.48
17440.74,1.48
17442.74,1.47
17444.74,1.47
17446.74,1.47
17449.74,1.47
17451.74,1.47
17453.74,1.48
17455.74,1.48
17457.74,1.48
17459.74,1.48
17461.74,1.48
17463.74,1.48
17465.74,1.48
17466.74,1.48
17468.74,1.48
17470.74,1.48
17472.74,1.48
17474.74,1.49
17476.74,3.3
17478.74,3.3
17480.74,3.3
17482.74,3.3
17484.74,3.3
17486.74,3.3
17488.74,3.3
17490.74,3.3
17493.74,3.3
17495.74,3.3
17497.74,3.3
17499.74,3.3
17501.74,3.3
17503.74,3.3
17505.74,3.3
17507.74,3.3
17508.74,3.3
17510.74,3.3
17512.74,3.3
17514.74,3.3
17516.74,3.3
17518.74,3.3
17520.74,3.3
17522.74,3.3
17524.74,3.3
17526.74,3.3
17528.74,3.3
17530.74,3.3
17532.74,3.3
17535.74,3.3
17537.74,3.3
17539.74,3.3
17541.74,3.3
17543.74,3.3
17545.74,3.3
17547.74,3.3
17549.74,3.3
17551.74,3.3
17552.74,3.3
17554.74,3.3
17556.74,3.3
17558.74,3.3
17560.74,3.3
17562.74,3.3
17564.74,3.3
17566.74,3.3
17568.74,3.3
17570.74,3.3
17572.74,3.3
17574.74,3.3
17577.74,3.3
17579.74,3.3
17581.74,3.3
17583.74,3.3
17585.74,3.3
17587.74,3.3
17589.74,3.3
17591.74,3.3
17593.74,3.3
17594.74,3.3
17596.74,3.3
17598.74,3.3
17600.74,3.3
17602.74,3.3
17604.74,3.3
17606.74,3.3
17608.74,3.3
17610.74,3.3
17612.74,3.3
17614.74,3.3
17616.74,3.3
17618.74,3.3
17621.74,3.3
17623.74,3.3
17625.74,3.3
17627.74,3.3
17629.74,3.3
17631.74,3.3
17633.74,3.3
17635.74,3.3
17636.74,3.3
17638.74,3.3
17640.74,3.3
17642.74,3.3
17644.74,3.3
17646.74,3.3
17648.74,3.3
17650.74,0.75
17652.74,0.0
17654.74,0.26
17656.74,0.0
17658.74,0.0
17660.74,0.0
17663.74,0.0
17665.74,0.0
17667.74,0.0
17669.74,0.0
17671.74,0.0
17673.74,0.0
17675.74,0.0
17677.74,0.0
17679.74,0.0
17680.74,0.0
17682.74,0.0
17684.74,0.0
17686.74,0.0
17688.74,0.0
17690.74,0.0
17692.74,0.0
17694.74,0.0
17696.74,0.0
17698.74,0.0
17700.74,0.0
17702.74,0.0
17705.74,0.0
17707.74,0.0
17709.74,0.0
17711.74,0.0
17713.74,0.0
17715.74,0.0
17717.74,0.0
17719.74,0.0
17721.74,0.0
17722.74,0.0
17724.74,0.0
17726.74,0.0
17728.74,0.0
17730.74,0.0
17732.74,0.0
17734.74,0.0
17736.74,0.0
17738.74,0.0
17740.74,0.0
17742.74,0.0
17744.74,0.0
17746.74,0.0
17749.74,0.0
17751.74,0.0
17753.74,0.0
17755.74,0.0
17757.74,0.0
17759.74,0.0
17761.74,0.0
17763.74,0.0
17764.74,0.0
17766.74,0.0
17768.74,0.0
17770.74,0.0
17772.74,0.0
17774.74,0.0
17776.74,0.0
17778.74,0.0
17780.74,0.0
17782.74,0.0
17784.74,0.0
17786.74,0.0
17788.74,0.0
17791.74,0.0
17793.74,0.0
17795.74,0.0
17797.74,0.0
17799.74,0.0
17801.74,0.0
17803.74,0.0
17805.74,0.0
17807.74,0.0
17808.74,0.0
17810.74,0.0
17812.74,0.0
17814.74,0.0
17816.74,0.0
17818.74,0.0
17820.74,0.0
17822.74,0.0
17824.74,0.0
17826.74,0.27
17828.74,0.82
17830.74,1.58
17833.74,2.8
17835.74,1.66
17837.74,0.46
17839.74,0.87
17841.74,1.07
17843.74,0.0
17845.74,0.0
17847.74,0.0
17849.74,0.53
17850.74,3.3
17852.74,3.3
17854.74,3.3
17856.74,3.3
17858.74,3.3
17860.74,3.3
17862.74,3.3
17864.74,3.3
17866.74,3.3
17868.74,3.3
17870.74,3.3
17872.74,3.3
17874.74,3.3
17877.74,3.3
17879.74,3.3
17881.74,3.3
17883.74,3.3
17885.74,3.3
17887.74,3.3
17889.74,3.3
17891.74,3.3
17892.74,3.3
17894.74,3.3
17896.74,3.3
17898.74,3.3
17900.74,3.3
17902.74,3.3
17904.74,3.22
17906.74,1.72
17908.74,0.25
17910.74,0.0
17912.74,0.0
17914.74,0.0
17916.74,0.0
17919.74,0.0
17921.74,0.0
17923.74,0.0
17925.74,0.0
17927.74,0.0
17929.74,0.0
17931.74,0.0
17933.74,0.0
17935.74,0.8
17936.74,1.07
17938.74,0.9
17940.74,0.0
17942.74,0.0
17944.74,0.0
17946.74,0.0
17948.74,0.0
17950.74,0.25
17952.74,2.18
17954.74,1.88
17956.74,1.25
17958.74,1.39
17961.74,1.29
17963.74,0.71
17965.74,0.3
17967.74,1.17
17969.74,1.42
17971.74,1.27
17973.74,1.88
17975.74,1.74
17977.74,1.16
17978.74,0.5
17980.74,1.93
17982.74,3.3
17984.74,3.3
17986.74,3.3
17988.74,2.27
17990.74,0.0
17992.74,1.11
17994.74,1.48
17996.74,2.45
17998.74,3.3
18000.74,3.3
18002.74,3.3
18005.74,3.3
18007.74,3.3
18009.74,3.3
18011.74,3.3
18013.74,3.28
18015.74,3.3
18017.74,3.3
18019.74,3.3
18020.74,3.3
18022.74,3.3
18024.74,2.89
18026.74,2.49
18028.74,2.67
18030.74,3.3
18032.74,3.3
18034.74,3.3
18036.74,3.3
18038.74,3.3
18040.74,3.3
18042.74,3.3
18044.74,3.3
18047.74,3.25
18049.74,2.86
18051.74,2.83
18053.74,2.34
18055.74,1.62
18057.74,1.93
18059.74,2.19
18061.74,0.41
18063.74,0.0
18064.74,0.0
18066.74,0.0
18068.74,0.0
18070.74,0.0
18072.74,0.0
18074.74,0.0
18076.74,0.0
18078.74,0.0
18080.74,0.0
18082.74,0.0
18084.74,0.0
18086.74,0.0
18089.74,0.0
18091.74,0.04
18093.74,0.0
18095.74,0.0
18097.74,0.0
18099.74,0.0
18101.74,0.0
18103.74,0.0
18105.74,0.0
18106.74,0.0
18108.74,0.0
18110.74,0.0
18112.74,0.0
18114.74,0.0
18116.74,0.0
18118.74,0.0
18120.74,0.0
18122.74,0.07
18124.74,0.0
18126.74,0.75
18128.74,1.21
18130.74,0.64
18133.74,0.66
18135.74,1.41
18137.74,2.45
18139.74,1.97
18141.74,0.48
18143.74,0.0
18145.74,0.0
18147.74,0.0
18148.74,0.0
18150.74,0.0
18152.74,0.0
18154.74,0.0
18156.74,0.0
18158.74,0.0
18160.74,0.0
18162.74,0.0
18164.74,0.0
18166.74,0.0
18168.74,0.0
18170.74,0.0
18172.74,0.0
18175.74,0.0
18177.74,0.0
18179.74,0.0
18181.74,0.0
18183.74,0.0
18185.74,0.0
18187.74,0.0
18189.74,0.0
18191.74,0.0
18192.74,0.0
18194.74,0.0
18196.74,0.0
18198.74,0.0
18200.74,0.0
18202.74,0.0
18204.74,0.0
18206.74,0.0
18208.74,0.0
18210.74,0.0
18212.74,0.0
18214.74,0.0
18217.74,0.0
18219.74,0.0
18221.74,0.0
18223.74,0.0
18225.74,0.0
18227.74,0.0
18229.74,0.0
18231.74,0.0
18233.74,0.0
18234.74,0.0
18236.74,0.0
18238.74,0.0
18240.74,0.0
18242.74,0.0
18244.74,0.0
18246.74,0.0
18248.74,0.0
18250.74,0.0
18252.74,0.0
18254.74,0.0
18256.74,0.0
18258.74,0.0
18261.74,0.0
18263.74,0.0
18265.74,0.0
18267.74,0.07
18269.74,0.0
18271.74,0.0
18273.74,0.0
18275.74,0.0
18276.74,0.36
18278.74,0.59
18280.74,0.24
18282.74,0.0
18284.74,0.0
18286.74,0.0
18288.74,0.0
18290.74,0.0
18292.74,0.0
18294.74,0.0
18296.74,0.0
18298.74,0.0
18300.74,0.0
18303.74,0.0
18305.74,0.0
18307.74,0.0
18309.74,0.0
18311.74,0.0
18313.74,0.0
18315.74,0.0
