time,ch1
0.0,1.75
1.0,1.73
3.0,0.44
5.0,0.0
7.0,0.0
9.0,0.0
11.0,0.02
13.0,0.09
15.0,0.37
17.0,0.64
19.0,0.87
21.0,0.99
23.0,1.13
25.0,1.11
27.0,0.85
29.0,0.82
31.0,0.9
33.0,0.93
35.0,1.31
37.0,1.44
39.0,1.38
41.0,1.29
44.0,1.17
46.0,1.15
47.0,1.23
49.0,1.25
51.0,1.21
53.0,1.31
55.0,1.58
57.0,1.6
59.0,1.52
61.0,1.36
63.0,1.29
65.0,1.22
67.0,1.07
69.0,1.01
71.0,1.3
73.0,1.53
75.0,1.75
77.0,1.81
79.0,1.93
81.0,2.01
83.0,1.92
86.0,1.39
88.0,1.31
90.0,1.21
92.0,1.31
94.0,1.53
95.0,1.72
97.0,1.8
99.0,1.63
101.0,1.49
103.0,1.41
105.0,1.27
107.0,1.19
109.0,1.32
111.0,1.67
113.0,1.78
115.0,2.05
117.0,2.19
119.0,2.17
121.0,2.26
123.0,2.2
125.0,1.97
128.0,1.64
130.0,1.6
132.0,1.77
134.0,2.1
136.0,2.44
138.0,2.54
139.0,2.46
141.0,2.47
143.0,2.38
145.0,2.22
147.0,2.24
149.0,2.09
151.0,2.11
153.0,2.25
155.0,2.4
157.0,2.36
159.0,2.13
161.0,1.97
163.0,1.71
165.0,1.32
167.0,1.14
169.0,1.11
172.0,1.25
174.0,1.35
176.0,1.46
178.0,1.71
180.0,1.74
181.0,1.76
183.0,1.74
185.0,1.65
187.0,1.48
189.0,1.44
191.0,1.61
193.0,1.67
195.0,1.82
197.0,1.84
199.0,1.78
201.0,1.76
203.0,1.7
205.0,1.69
207.0,1.58
209.0,1.56
211.0,1.68
214.0,1.88
216.0,2.01
218.0,2.01
220.0,1.94
222.0,1.92
224.0,1.87
225.0,1.74
227.0,1.7
229.0,1.68
231.0,1.8
233.0,2.12
235.0,2.42
237.0,2.42
239.0,2.45
241.0,2.5
243.0,2.43
245.0,2.32
247.0,2.01
249.0,1.88
251.0,1.96
253.0,2.05
256.0,2.16
258.0,2.11
260.0,2.04
262.0,1.97
264.0,1.79
266.0,1.62
267.0,1.4
269.0,1.55
271.0,1.81
273.0,2.03
275.0,2.29
277.0,2.3
279.0,2.23
281.0,2.17
283.0,2.13
285.0,2.0
287.0,1.76
289.0,1.76
291.0,1.96
293.0,2.15
295.0,2.4
297.0,2.4
300.0,2.26
302.0,2.21
304.0,2.03
306.0,1.9
308.0,1.73
310.0,1.7
311.0,1.85
313.0,1.95
315.0,1.92
317.0,1.9
319.0,2.0
321.0,2.06
323.0,1.91
325.0,1.81
327.0,1.68
329.0,1.56
331.0,1.74
333.0,1.83
335.0,1.99
337.0,2.09
339.0,2.15
342.0,2.11
344.0,1.95
346.0,1.71
348.0,1.41
350.0,1.35
352.0,1.5
353.0,1.77
355.0,1.93
357.0,1.89
359.0,1.91
361.0,1.89
363.0,1.69
365.0,1.55
367.0,1.35
369.0,1.34
371.0,1.46
373.0,1.58
375.0,1.82
377.0,1.83
379.0,1.72
381.0,1.75
384.0,1.68
386.0,1.58
388.0,1.49
390.0,1.3
392.0,1.41
394.0,1.46
395.0,1.58
397.0,1.65
399.0,1.57
401.0,1.6
403.0,1.51
405.0,1.34
407.0,1.23
409.0,1.13
411.0,1.3
413.0,1.56
415.0,1.53
417.0,1.47
419.0,1.48
421.0,1.58
423.0,1.43
425.0,1.32
428.0,1.14
430.0,1.12
432.0,1.27
434.0,1.35
436.0,1.44
438.0,1.51
439.0,1.57
441.0,1.65
443.0,1.51
445.0,1.39
447.0,1.18
449.0,1.15
451.0,1.27
453.0,1.39
455.0,1.56
457.0,1.61
459.0,1.54
461.0,1.65
463.0,1.46
465.0,1.32
467.0,1.04
470.0,0.99
472.0,1.19
474.0,1.36
476.0,1.6
478.0,1.55
480.0,1.65
481.0,1.66
483.0,1.59
485.0,1.39
487.0,1.24
489.0,1.19
491.0,1.42
493.0,1.72
495.0,1.98
497.0,2.07
499.0,1.94
501.0,1.93
503.0,1.85
505.0,1.76
507.0,1.51
509.0,1.52
512.0,1.66
514.0,1.79
516.0,1.87
518.0,1.82
520.0,1.74
522.0,1.65
523.0,1.53
525.0,1.42
527.0,1.41
529.0,1.34
531.0,1.5
533.0,1.69
535.0,1.72
537.0,1.66
539.0,1.53
541.0,1.2
543.0,0.98
545.0,0.82
547.0,0.49
549.0,0.5
551.0,0.67
553.0,0.86
556.0,1.13
558.0,1.05
560.0,1.12
562.0,1.11
564.0,0.93
566.0,0.83
567.0,0.6
569.0,0.81
571.0,1.15
573.0,1.26
575.0,1.42
577.0,1.48
579.0,1.51
581.0,1.44
583.0,1.39
585.0,1.32
587.0,1.11
589.0,1.07
591.0,1.23
593.0,1.26
595.0,1.42
598.0,1.41
600.0,1.3
602.0,1.23
604.0,0.91
606.0,0.79
608.0,0.66
609.0,0.79
611.0,0.99
613.0,1.22
615.0,1.34
617.0,1.34
619.0,1.35
621.0,1.35
623.0,1.09
625.0,0.96
627.0,0.62
629.0,0.55
631.0,0.66
633.0,0.94
635.0,1.17
637.0,1.15
640.0,1.27
642.0,1.28
644.0,1.06
646.0,1.04
648.0,0.88
650.0,0.91
652.0,1.1
653.0,1.26
655.0,1.55
657.0,1.54
659.0,1.62
661.0,1.64
663.0,1.56
665.0,1.51
667.0,1.33
669.0,1.41
671.0,1.81
673.0,2.03
675.0,2.27
677.0,2.34
679.0,2.32
681.0,2.27
684.0,2.19
686.0,2.06
688.0,1.88
690.0,1.8
692.0,1.94
694.0,1.97
695.0,2.13
697.0,2.21
699.0,2.22
701.0,2.45
703.0,2.46
705.0,2.35
707.0,2.14
709.0,2.09
711.0,2.19
713.0,2.34
715.0,2.43
717.0,2.4
719.0,2.35
721.0,2.45
723.0,2.37
726.0,2.25
728.0,2.19
730.0,2.24
732.0,2.28
734.0,2.36
736.0,2.46
737.0,2.63
739.0,2.56
741.0,2.4
743.0,2.19
745.0,2.14
747.0,1.85
749.0,1.68
751.0,1.9
753.0,2.07
755.0,2.21
757.0,2.24
759.0,2.08
761.0,1.93
763.0,1.72
765.0,1.46
768.0,1.27
770.0,1.26
772.0,1.46
774.0,1.6
776.0,1.72
778.0,1.64
780.0,1.54
781.0,1.44
783.0,1.29
785.0,1.06
787.0,0.96
789.0,0.95
791.0,0.94
793.0,1.0
795.0,1.25
797.0,1.23
799.0,1.26
801.0,1.16
803.0,0.97
805.0,0.89
807.0,0.84
809.0,0.91
812.0,1.07
814.0,1.51
816.0,1.77
818.0,1.82
820.0,1.75
822.0,1.48
823.0,1.13
825.0,1.0
827.0,0.72
829.0,0.81
831.0,1.01
833.0,1.2
835.0,1.31
837.0,1.36
839.0,1.3
841.0,1.41
843.0,1.29
845.0,1.38
847.0,1.35
849.0,1.58
851.0,1.95
854.0,2.22
856.0,2.44
858.0,2.49
860.0,2.57
862.0,2.64
864.0,2.65
865.0,2.73
867.0,2.9
869.0,3.15
871.0,3.3
873.0,3.3
875.0,3.3
877.0,3.3
879.0,3.3
881.0,3.3
883.0,3.3
885.0,3.3
887.0,3.3
889.0,3.3
891.0,3.3
893.0,3.3
896.0,3.3
898.0,3.3
900.0,3.3
902.0,3.3
904.0,3.3
906.0,3.3
908.0,3.3
909.0,3.3
911.0,3.3
913.0,3.3
915.0,3.3
917.0,3.27
919.0,3.03
921.0,2.73
923.0,2.27
925.0,2.05
927.0,1.62
929.0,1.53
931.0,1.61
933.0,1.48
935.0,1.37
937.0,1.13
940.0,0.83
942.0,0.72
944.0,0.28
946.0,0.0
948.0,0.0
950.0,0.0
951.0,0.0
953.0,0.15
955.0,0.42
957.0,0.39
959.0,0.35
961.0,0.47
963.0,0.31
965.0,0.16
967.0,0.27
969.0,0.34
971.0,0.74
973.0,1.03
975.0,1.27
977.0,1.34
979.0,1.39
982.0,1.14
984.0,0.86
986.0,0.52
988.0,0.4
990.0,0.46
992.0,0.71
993.0,0.99
995.0,1.21
997.0,1.24
999.0,1.25
1001.0,1.18
1003.0,0.99
1005.0,0.8
1007.0,0.3
1009.0,0.24
1011.0,0.48
1013.0,0.79
1015.0,1.04
1017.0,1.07
1019.0,1.03
1021.0,0.98
1024.0,0.71
1026.0,0.47
1028.0,0.38
1030.0,0.47
1032.0,0.73
1034.0,1.05
1036.0,1.36
1037.0,1.58
1039.0,1.61
1041.0,1.55
1043.0,1.32
1045.0,1.03
1047.0,0.79
1049.0,3.3
1051.0,3.3
1053.0,3.3
1055.0,3.3
1057.0,3.3
1059.0,3.3
1061.0,3.3
1063.0,3.3
1065.0,3.3
1068.0,3.3
1070.0,3.3
1072.0,3.3
1074.0,3.3
1076.0,3.3
1078.0,3.3
1079.0,3.3
1081.0,3.16
1083.0,2.85
1085.0,2.47
1087.0,1.87
1089.0,1.77
1091.0,1.76
1093.0,2.07
1095.0,2.38
1097.0,2.35
1099.0,2.28
1101.0,2.15
1103.0,1.86
1105.0,1.62
1107.0,1.32
1110.0,1.5
1112.0,1.73
1114.0,2.05
1116.0,2.22
1118.0,2.19
1120.0,2.15
1122.0,2.02
1123.0,1.74
1125.0,1.55
1127.0,1.32
1129.0,1.07
1131.0,1.05
1133.0,1.06
1135.0,0.91
1137.0,0.88
1139.0,0.85
1141.0,0.73
1143.0,0.47
1145.0,0.36
1147.0,0.15
1149.0,0.21
1152.0,0.56
1154.0,0.77
1156.0,1.0
1158.0,1.05
1160.0,1.14
1162.0,0.96
1164.0,0.67
1165.0,0.47
1167.0,0.24
1169.0,0.28
1171.0,0.64
1173.0,0.96
1175.0,1.35
1177.0,1.4
1179.0,1.44
1181.0,1.45
1183.0,1.21
1185.0,1.14
1187.0,0.99
1189.0,1.08
1191.0,1.34
1193.0,1.6
1196.0,1.85
1198.0,1.81
1200.0,1.73
1202.0,1.68
1204.0,1.45
1206.0,1.15
1208.0,0.95
1209.0,0.91
1211.0,1.13
1213.0,1.44
1215.0,1.67
1217.0,1.59
1219.0,1.34
1221.0,1.21
1223.0,1.0
1225.0,0.79
1227.0,0.55
1229.0,0.55
1231.0,0.85
1233.0,1.16
1235.0,1.43
1238.0,1.51
1240.0,1.41
1242.0,1.21
1244.0,0.88
1246.0,0.68
1248.0,0.48
1250.0,0.57
1251.0,0.87
1253.0,1.25
1255.0,1.57
1257.0,1.53
1259.0,1.49
1261.0,1.38
1263.0,1.07
1265.0,0.64
1267.0,0.34
1269.0,0.37
1271.0,0.54
1273.0,0.76
1275.0,0.91
1277.0,0.89
1280.0,0.94
1282.0,0.99
1284.0,0.75
1286.0,0.48
1288.0,0.0
1290.0,0.0
1292.0,0.0
1294.0,0.22
1295.0,0.46
1297.0,0.46
1299.0,0.42
1301.0,0.43
1303.0,0.41
1305.0,0.36
1307.0,0.35
1309.0,0.44
1311.0,0.68
1313.0,0.95
1315.0,0.95
1317.0,1.0
1319.0,1.05
1321.0,1.04
1324.0,0.97
1326.0,0.71
1328.0,0.42
1330.0,0.44
1332.0,0.69
1334.0,0.96
1336.0,1.11
1337.0,1.08
1339.0,1.01
1341.0,0.97
1343.0,0.78
1345.0,0.59
1347.0,0.43
1349.0,0.51
1351.0,0.7
1353.0,0.95
1355.0,1.19
1357.0,1.15
1359.0,1.18
1361.0,1.15
1363.0,0.98
1366.0,0.8
1368.0,0.69
1370.0,0.75
1372.0,0.96
1374.0,1.25
1376.0,1.35
1378.0,1.27
1380.0,1.23
1381.0,1.1
1383.0,0.92
1385.0,0.78
1387.0,0.47
1389.0,0.47
1391.0,0.73
1393.0,0.97
1395.0,1.17
1397.0,1.23
1399.0,1.23
1401.0,1.14
1403.0,0.92
1405.0,0.69
1408.0,0.44
1410.0,0.55
1412.0,0.77
1414.0,1.01
1416.0,1.22
1418.0,1.35
1420.0,1.34
1422.0,1.34
1423.0,1.12
1425.0,0.91
1427.0,0.77
1429.0,0.89
1431.0,1.14
1433.0,1.45
1435.0,1.63
1437.0,1.74
1439.0,1.76
1441.0,1.61
1443.0,1.31
1445.0,1.04
1447.0,0.72
1449.0,0.92
1452.0,1.14
1454.0,1.6
1456.0,1.95
1458.0,2.05
1460.0,2.05
1462.0,1.93
1464.0,1.62
1466.0,1.22
1467.0,1.0
1469.0,0.97
1471.0,1.16
1473.0,1.48
1475.0,1.75
1477.0,1.89
1479.0,1.79
1481.0,1.67
1483.0,1.47
1485.0,1.24
1487.0,1.03
1489.0,1.05
1491.0,1.39
1494.0,1.73
1496.0,1.93
1498.0,1.92
1500.0,1.84
1502.0,1.69
1504.0,1.48
1506.0,1.24
1508.0,1.06
1509.0,1.26
1511.0,1.94
1513.0,2.29
1515.0,2.21
1517.0,2.15
1519.0,2.11
1521.0,2.01
1523.0,1.65
1525.0,2.22
1527.0,3.04
1529.0,3.25
1531.0,2.58
1533.0,2.15
1536.0,1.95
1538.0,1.81
1540.0,1.76
1542.0,1.61
1544.0,1.37
1546.0,1.36
1548.0,2.43
1550.0,2.71
1552.0,2.91
1553.0,3.1
1555.0,3.15
1557.0,2.99
1559.0,2.86
1561.0,2.59
1563.0,2.31
1565.0,2.07
1567.0,1.89
1569.0,1.88
1571.0,2.07
1573.0,2.32
1575.0,2.39
1577.0,2.23
1580.0,2.03
1582.0,1.7
1584.0,1.04
1586.0,0.25
1588.0,0.01
1590.0,0.44
1592.0,0.65
1594.0,0.94
1595.0,1.26
1597.0,1.02
1599.0,1.05
1601.0,0.92
1603.0,1.83
1605.0,2.09
1607.0,1.82
1609.0,1.86
1611.0,2.01
1613.0,1.89
1615.0,1.24
1617.0,0.66
1619.0,0.45
1622.0,0.36
1624.0,0.31
1626.0,0.2
1628.0,0.31
1630.0,0.48
1632.0,0.83
1634.0,1.23
1636.0,1.49
1638.0,2.09
1639.0,2.65
1641.0,2.19
1643.0,1.25
1645.0,0.77
1647.0,0.59
1649.0,0.79
1651.0,1.26
1653.0,1.54
1655.0,1.67
1657.0,1.55
1659.0,1.88
1661.0,2.46
1664.0,1.6
1666.0,1.02
1668.0,0.65
1670.0,0.79
1672.0,1.79
1674.0,1.99
1676.0,1.73
1678.0,1.19
1680.0,1.03
1681.0,0.9
1683.0,0.82
1685.0,1.12
1687.0,0.94
1689.0,0.79
1691.0,1.03
1693.0,1.79
1695.0,1.9
1697.0,1.58
1699.0,1.26
1701.0,1.08
1703.0,0.91
1705.0,0.66
1708.0,0.68
1710.0,0.86
1712.0,1.27
1714.0,1.95
1716.0,2.45
1718.0,2.55
1720.0,2.59
1722.0,2.65
1724.0,2.02
1725.0,1.43
1727.0,1.01
1729.0,1.04
1731.0,1.29
1733.0,1.34
1735.0,1.35
1737.0,1.36
1739.0,1.35
1741.0,1.21
1743.0,1.23
1745.0,1.06
1747.0,0.89
1750.0,1.5
1752.0,1.94
1754.0,2.25
1756.0,2.36
1758.0,2.42
1760.0,2.27
1762.0,2.0
1764.0,1.57
1766.0,1.22
1767.0,0.95
1769.0,1.03
1771.0,1.27
1773.0,1.69
1775.0,1.86
1777.0,1.62
1779.0,1.45
1781.0,1.34
1783.0,0.94
1785.0,0.49
1787.0,0.41
1789.0,0.61
1792.0,0.97
1794.0,1.34
1796.0,1.45
1798.0,1.42
1800.0,1.31
1802.0,1.18
1804.0,0.89
1806.0,0.61
1808.0,0.54
1810.0,0.48
1811.0,0.58
1813.0,1.02
1815.0,1.15
1817.0,1.26
1819.0,1.28
1821.0,1.22
1823.0,1.03
1825.0,0.77
1827.0,0.59
1829.0,0.85
1831.0,1.15
1833.0,1.45
1836.0,1.64
1838.0,1.64
1840.0,1.54
1842.0,1.5
1844.0,1.43
1846.0,1.26
1848.0,1.19
1850.0,1.28
1852.0,1.5
1853.0,1.78
1855.0,2.0
1857.0,2.05
1859.0,1.97
1861.0,1.84
1863.0,1.84
1865.0,1.76
1867.0,1.82
1869.0,2.18
1871.0,2.51
1873.0,2.81
1875.0,2.65
1878.0,2.73
1880.0,2.53
1882.0,2.26
1884.0,1.97
1886.0,1.96
1888.0,2.01
1890.0,2.17
1892.0,2.35
1894.0,2.78
1896.0,2.85
1897.0,2.3
1899.0,1.69
1901.0,1.7
1903.0,1.61
1905.0,1.21
1907.0,1.33
1909.0,1.56
1911.0,1.62
1913.0,1.76
1915.0,1.92
1917.0,1.81
1920.0,1.83
1922.0,1.69
1924.0,1.14
1926.0,0.62
1928.0,0.33
1930.0,0.58
1932.0,0.74
1934.0,1.04
1936.0,1.11
1938.0,1.18
1940.0,1.41
1941.0,1.45
1943.0,1.4
1945.0,0.89
1947.0,0.77
1949.0,1.05
1951.0,1.47
1953.0,1.98
1955.0,2.25
1957.0,2.54
1959.0,2.71
1961.0,2.68
1964.0,2.58
1966.0,2.43
1968.0,2.47
1970.0,2.81
1972.0,3.14
1974.0,3.3
1976.0,3.3
1978.0,3.15
1980.0,3.12
1982.0,3.01
1983.0,2.72
1985.0,2.34
1987.0,2.2
1989.0,2.37
1991.0,2.58
1993.0,2.72
1995.0,2.74
1997.0,2.61
1999.0,2.49
2001.0,2.31
2003.0,2.06
2006.0,1.71
2008.0,1.53
2010.0,1.64
2012.0,1.83
2014.0,1.98
2016.0,2.02
2018.0,1.83
2020.0,1.75
2022.0,1.54
2024.0,1.38
2026.0,1.1
2027.0,1.18
2029.0,1.31
2031.0,1.64
2033.0,1.96
2035.0,2.14
2037.0,2.06
2039.0,2.13
2041.0,1.94
2043.0,1.7
2045.0,1.36
2048.0,1.17
2050.0,1.38
2052.0,1.61
2054.0,1.81
2056.0,1.89
2058.0,1.84
2060.0,1.92
2062.0,1.8
2064.0,1.56
2066.0,1.36
2068.0,1.2
2069.0,1.47
2071.0,1.96
2073.0,2.39
2075.0,2.53
2077.0,2.66
2079.0,2.61
2081.0,2.32
2083.0,2.17
2085.0,1.9
2087.0,1.86
2089.0,2.06
2092.0,2.43
2094.0,2.72
2096.0,2.78
2098.0,2.74
2100.0,2.57
2102.0,2.49
2104.0,2.31
2106.0,2.0
2108.0,1.73
2110.0,1.64
2112.0,2.0
2113.0,2.32
2115.0,2.39
2117.0,2.15
2119.0,2.1
2121.0,1.93
2123.0,1.83
2125.0,1.64
2127.0,1.26
2129.0,1.17
2131.0,1.34
2134.0,1.55
2136.0,1.47
2138.0,1.41
2140.0,1.38
2142.0,1.38
2144.0,1.18
2146.0,0.63
2148.0,0.49
2150.0,0.92
2152.0,1.32
2154.0,1.65
2155.0,1.77
2157.0,1.82
2159.0,1.62
2161.0,1.33
2163.0,1.2
2165.0,0.88
2167.0,0.97
2169.0,1.46
2171.0,1.66
2173.0,1.97
2176.0,1.9
2178.0,1.89
2180.0,1.78
2182.0,1.46
2184.0,1.17
2186.0,0.85
2188.0,0.54
2190.0,0.0
2192.0,0.0
2194.0,0.0
2196.0,0.0
2198.0,0.0
2199.0,0.0
2201.0,0.0
2203.0,0.0
2205.0,0.0
2207.0,0.0
2209.0,0.0
2211.0,0.0
2213.0,0.0
2215.0,0.0
2217.0,0.0
2220.0,0.0
2222.0,0.0
2224.0,0.0
2226.0,0.0
2228.0,0.0
2230.0,0.0
2232.0,0.0
2234.0,0.0
2236.0,0.0
2238.0,0.0
2240.0,0.0
2241.0,0.0
2243.0,0.0
2245.0,0.0
2247.0,0.0
2249.0,0.0
2251.0,0.0
2253.0,0.0
2255.0,0.0
2257.0,0.0
2259.0,0.0
2262.0,0.0
2264.0,0.0
2266.0,0.0
2268.0,0.0
2270.0,0.0
2272.0,0.24
2274.0,0.89
2276.0,1.08
2278.0,0.94
2280.0,0.84
2282.0,0.52
2284.0,0.0
2285.0,0.0
2287.0,0.0
2289.0,0.0
2291.0,0.55
2293.0,1.13
2295.0,1.4
2297.0,1.44
2299.0,1.25
2301.0,0.91
2304.0,0.24
2306.0,0.0
2308.0,0.0
2310.0,0.0
2312.0,0.38
2314.0,0.98
2316.0,1.36
2318.0,1.32
2320.0,1.09
2322.0,0.66
2324.0,0.26
2326.0,0.0
2327.0,0.0
2329.0,0.34
2331.0,1.03
2333.0,1.75
2335.0,2.0
2337.0,1.92
2339.0,1.76
2341.0,1.27
2343.0,1.0
2345.0,0.54
2348.0,0.56
2350.0,1.11
2352.0,1.85
2354.0,2.57
2356.0,2.7
2358.0,2.46
2360.0,2.34
2362.0,2.09
2364.0,1.47
2366.0,0.79
2368.0,0.45
2370.0,0.78
2371.0,1.52
2373.0,2.32
2375.0,2.57
2377.0,2.68
2379.0,2.95
2381.0,2.42
2383.0,1.77
2385.0,1.26
2387.0,1.32
2390.0,1.87
2392.0,2.75
2394.0,3.3
2396.0,3.3
2398.0,3.24
2400.0,3.03
2402.0,2.45
2404.0,1.74
2406.0,1.07
2408.0,0.91
2410.0,1.46
2412.0,2.13
2414.0,2.74
2415.0,2.93
2417.0,2.75
2419.0,2.69
2421.0,2.2
2423.0,1.66
2425.0,1.15
2427.0,1.15
2429.0,1.7
2432.0,2.55
2434.0,3.3
2436.0,3.3
2438.0,3.3
2440.0,3.3
2442.0,3.04
2444.0,2.63
2446.0,1.96
2448.0,1.76
2450.0,2.14
2452.0,3.0
2454.0,3.3
2456.0,3.3
2457.0,3.3
2459.0,3.14
2461.0,2.52
2463.0,1.76
2465.0,1.29
2467.0,1.14
2469.0,1.79
2471.0,2.4
2473.0,2.95
2476.0,3.08
2478.0,3.02
2480.0,2.87
2482.0,2.15
2484.0,1.52
2486.0,0.79
2488.0,0.7
2490.0,0.0
2492.0,0.0
2494.0,0.85
2496.0,1.72
2498.0,2.08
2500.0,2.29
2501.0,1.74
2503.0,1.1
2505.0,0.51
2507.0,0.57
2509.0,1.24
2511.0,2.13
2513.0,2.68
2515.0,2.82
2518.0,2.74
2520.0,2.64
2522.0,2.07
2524.0,1.47
2526.0,0.95
2528.0,0.94
2530.0,1.55
2532.0,2.34
2534.0,2.96
2536.0,3.1
2538.0,3.08
2540.0,2.81
2542.0,1.97
2543.0,1.11
2545.0,0.4
2547.0,0.48
2549.0,0.92
2551.0,1.72
2553.0,2.3
2555.0,2.35
2557.0,2.27
2560.0,1.79
2562.0,1.22
2564.0,0.61
2566.0,0.16
2568.0,0.32
2570.0,0.96
2572.0,1.57
2574.0,1.97
2576.0,1.94
2578.0,1.74
2580.0,1.56
2582.0,1.02
2584.0,0.47
2586.0,0.0
2587.0,0.0
2589.0,0.0
2591.0,0.07
2593.0,0.53
2595.0,0.78
2597.0,0.68
2599.0,0.47
2601.0,0.02
2604.0,0.0
2606.0,0.0
2608.0,0.0
2610.0,0.1
2612.0,0.89
2614.0,1.66
2616.0,1.8
2618.0,1.79
2620.0,1.54
2622.0,1.13
2624.0,0.6
2626.0,0.11
2628.0,0.0
2629.0,0.63
2631.0,1.15
2633.0,1.63
2635.0,1.74
2637.0,1.85
2639.0,1.53
2641.0,0.65
2643.0,0.08
2646.0,0.0
2648.0,0.0
2650.0,0.29
2652.0,1.05
2654.0,1.75
2656.0,2.12
2658.0,2.32
2660.0,2.07
2662.0,1.6
2664.0,1.22
2666.0,0.86
2668.0,0.8
2670.0,1.45
2671.0,2.29
2673.0,3.2
2675.0,3.3
2677.0,3.15
2679.0,2.9
2681.0,2.3
2683.0,1.91
2685.0,1.34
2688.0,1.2
2690.0,1.76
2692.0,2.48
2694.0,3.2
2696.0,3.1
2698.0,2.81
2700.0,2.53
2702.0,1.88
2704.0,0.93
2706.0,0.49
2708.0,0.47
2710.0,1.06
2712.0,1.93
2714.0,2.65
2715.0,2.4
2717.0,2.12
2719.0,3.3
2721.0,3.3
2723.0,3.3
2725.0,3.3
2727.0,3.3
2729.0,3.3
2732.0,3.3
2734.0,3.3
2736.0,3.3
2738.0,3.3
2740.0,3.3
2742.0,3.3
2744.0,3.3
2746.0,3.3
2748.0,3.3
2750.0,3.3
2752.0,3.3
2754.0,3.3
2756.0,3.3
2757.0,3.3
2759.0,3.3
2761.0,3.3
2763.0,3.3
2765.0,3.3
2767.0,3.3
2769.0,3.3
2771.0,3.3
2774.0,3.3
2776.0,3.3
2778.0,3.3
2780.0,3.3
2782.0,3.3
2784.0,3.3
2786.0,3.3
2788.0,3.3
2790.0,3.3
2792.0,3.3
2794.0,3.3
2796.0,3.3
2798.0,3.17
2800.0,2.74
2801.0,2.16
2803.0,1.18
2805.0,0.39
2807.0,0.42
2809.0,0.54
2811.0,0.09
2813.0,0.0
2816.0,0.0
2818.0,0.0
2820.0,0.0
2822.0,0.0
2824.0,0.0
2826.0,0.0
2828.0,0.01
2830.0,0.99
2832.0,1.54
2834.0,2.07
2836.0,2.68
2838.0,2.94
2840.0,2.55
2842.0,0.38
2844.0,0.0
2845.0,0.0
2847.0,0.52
2849.0,1.1
2851.0,1.35
2853.0,1.51
2855.0,0.84
2857.0,0.0
2860.0,0.0
2862.0,0.0
2864.0,0.0
2866.0,0.0
2868.0,0.0
2870.0,0.0
2872.0,0.0
2874.0,0.0
2876.0,0.0
2878.0,0.0
2880.0,0.0
2882.0,0.0
2884.0,0.0
2886.0,0.0
2887.0,0.0
2889.0,0.0
2891.0,0.0
2893.0,0.0
2895.0,0.0
2897.0,0.0
2899.0,0.0
2902.0,0.0
2904.0,0.0
2906.0,0.0
2908.0,0.0
2910.0,0.0
2912.0,0.0
2914.0,0.0
2916.0,0.0
2918.0,0.53
2920.0,0.64
2922.0,0.48
2924.0,0.34
2926.0,0.2
2928.0,0.12
2930.0,0.79
2931.0,1.83
2933.0,2.85
2935.0,3.3
2937.0,3.3
2939.0,3.3
2941.0,3.3
2944.0,3.3
2946.0,3.3
2948.0,3.3
2950.0,3.3
2952.0,3.3
2954.0,3.3
2956.0,3.3
2958.0,3.3
2960.0,3.3
2962.0,3.3
2964.0,3.3
2966.0,3.3
2968.0,3.3
2970.0,3.3
2972.0,3.3
2973.0,3.3
2975.0,3.3
2977.0,3.3
2979.0,3.3
2981.0,3.3
2983.0,3.3
2985.0,3.3
2988.0,3.3
2990.0,3.3
2992.0,3.3
2994.0,3.3
2996.0,3.3
2998.0,3.3
3000.0,3.3
3002.0,3.3
3004.0,3.3
3006.0,3.3
3008.0,3.3
3010.0,3.3
3012.0,3.3
3014.0,3.3
3016.0,3.3
3017.0,3.3
3019.0,3.3
3021.0,3.3
3023.0,3.3
3025.0,3.3
3027.0,3.3
3030.0,3.3
3032.0,3.3
3034.0,3.3
3036.0,3.3
3038.0,3.3
3040.0,3.3
3042.0,3.3
3044.0,3.3
3046.0,3.3
3048.0,3.3
3050.0,3.3
3052.0,3.3
3054.0,3.3
3056.0,3.3
3058.0,3.3
3059.0,3.3
3061.0,3.3
3063.0,3.3
3065.0,3.3
3067.0,3.3
3069.0,3.3
3072.0,3.3
3074.0,3.3
3076.0,3.3
3078.0,3.3
3080.0,3.3
3082.0,3.3
3084.0,3.3
3086.0,3.3
3088.0,3.3
3090.0,3.3
3092.0,3.3
3094.0,3.3
3096.0,3.3
3098.0,3.3
3100.0,3.3
3102.0,3.3
3103.0,3.3
3105.0,3.3
3107.0,3.3
3109.0,3.3
3111.0,3.3
3113.0,3.3
3116.0,3.3
3118.0,3.3
3120.0,3.3
3122.0,3.3
3124.0,3.3
3126.0,3.3
3128.0,3.3
3130.0,3.3
3132.0,3.3
3134.0,3.3
3136.0,3.3
3138.0,3.3
3140.0,3.3
3142.0,3.3
3144.0,3.3
3146.0,3.3
3147.0,3.3
3149.0,3.3
3151.0,3.3
3153.0,3.3
3155.0,2.82
3158.0,1.62
3160.0,0.71
3162.0,1.04
3164.0,1.31
3166.0,1.56
3168.0,1.25
3170.0,1.36
3172.0,1.49
3174.0,1.22
3176.0,1.1
3178.0,1.27
3180.0,1.32
3182.0,0.94
3184.0,0.56
3186.0,0.88
3188.0,0.98
3190.0,0.98
3191.0,0.95
3193.0,0.76
3195.0,0.32
3197.0,0.0
3200.0,0.0
3202.0,0.0
3204.0,0.0
3206.0,0.0
3208.0,0.0
3210.0,0.0
3212.0,0.0
3214.0,0.0
3216.0,0.0
3218.0,0.0
3220.0,0.0
3222.0,0.0
3224.0,0.0
3226.0,0.0
3228.0,0.0
3230.0,0.0
3232.0,0.0
3233.0,0.0
3235.0,0.0
3237.0,0.0
3239.0,0.0
3241.0,0.0
3244.0,0.0
3246.0,0.0
3248.0,0.0
3250.0,0.0
3252.0,0.0
3254.0,0.0
3256.0,0.0
3258.0,0.0
3260.0,0.0
3262.0,0.0
3264.0,0.0
3266.0,0.04
3268.0,0.83
3270.0,1.39
3272.0,1.61
3274.0,1.85
3276.0,2.15
3277.0,2.54
3279.0,2.79
3281.0,3.06
3283.0,3.29
3286.0,3.19
3288.0,2.98
3290.0,3.07
3292.0,3.3
3294.0,3.3
3296.0,3.3
3298.0,3.3
3300.0,3.3
3302.0,3.3
3304.0,3.3
3306.0,3.3
3308.0,3.3
3310.0,3.3
3312.0,3.3
3314.0,3.3
3316.0,3.3
3318.0,3.3
3319.0,3.3
3321.0,3.28
3323.0,2.42
3325.0,1.7
3328.0,1.63
3330.0,1.03
3332.0,0.84
3334.0,0.93
3336.0,0.99
3338.0,0.0
3340.0,0.0
3342.0,0.0
3344.0,0.0
3346.0,0.0
3348.0,0.0
3350.0,0.0
3352.0,0.0
3354.0,0.0
3356.0,0.0
3358.0,0.0
3360.0,0.0
3362.0,0.0
3363.0,0.0
3365.0,0.0
3367.0,0.0
3369.0,0.0
3372.0,0.0
3374.0,0.0
3376.0,0.0
3378.0,0.0
3380.0,0.0
3382.0,0.0
3384.0,0.0
3386.0,0.0
3388.0,0.0
3390.0,0.0
3392.0,0.0
3394.0,0.0
3396.0,0.0
3398.0,0.0
3400.0,0.0
3402.0,0.0
3404.0,0.0
3405.0,0.0
3407.0,0.0
3409.0,0.0
3411.0,0.0
3414.0,0.0
3416.0,0.0
3418.0,0.0
3420.0,0.0
3422.0,0.0
3424.0,0.0
3426.0,0.0
3428.0,0.0
3430.0,0.0
3432.0,0.0
3434.0,0.0
3436.0,0.0
3438.0,0.0
3440.0,0.0
3442.0,0.0
3444.0,0.0
3446.0,0.0
3448.0,0.0
3449.0,0.0
3451.0,0.0
3453.0,0.0
3456.0,0.0
3458.0,0.0
3460.0,0.0
3462.0,0.0
3464.0,0.0
3466.0,0.0
3468.0,0.0
3470.0,0.0
3472.0,0.0
3474.0,0.0
3476.0,0.0
3478.0,0.0
3480.0,0.0
3482.0,0.0
3484.0,0.0
3486.0,0.0
3488.0,0.0
3490.0,0.0
3491.0,0.0
3493.0,0.0
3495.0,0.0
3497.0,0.0
3500.0,0.0
3502.0,0.0
3504.0,0.0
3506.0,0.0
3508.0,0.0
3510.0,0.0
3512.0,0.0
3514.0,0.0
3516.0,0.0
3518.0,0.0
3520.0,0.0
3522.0,0.0
3524.0,0.0
3526.0,0.0
3528.0,0.06
3530.0,0.37
3532.0,0.69
3534.0,1.09
3535.0,1.75
3537.0,2.11
3539.0,2.26
3542.0,2.11
3544.0,2.09
3546.0,1.82
3548.0,1.78
3550.0,2.09
3552.0,2.33
3554.0,2.7
3556.0,2.82
3558.0,2.66
3560.0,2.4
3562.0,2.35
3564.0,1.71
3566.0,1.59
3568.0,1.79
3570.0,1.51
3572.0,1.41
3574.0,1.44
3576.0,1.53
3578.0,1.12
3579.0,0.7
3581.0,0.43
3584.0,0.1
3586.0,0.01
3588.0,0.47
3590.0,0.68
3592.0,0.77
3594.0,0.62
3596.0,0.35
3598.0,0.77
3600.0,1.07
3602.0,1.27
3604.0,1.41
3606.0,1.34
3608.0,1.23
3610.0,1.29
3612.0,1.33
3614.0,1.01
3616.0,0.62
3618.0,0.5
3620.0,0.42
3621.0,0.3
3623.0,0.08
3625.0,0.06
3628.0,0.2
3630.0,0.24
3632.0,0.23
3634.0,0.22
3636.0,0.16
3638.0,0.09
3640.0,0.0
3642.0,0.0
3644.0,0.0
3646.0,0.0
3648.0,0.01
3650.0,0.09
3652.0,0.31
3654.0,0.29
3656.0,0.13
3658.0,0.0
3660.0,0.0
3662.0,0.0
3664.0,0.0
3665.0,0.0
3667.0,0.21
3670.0,0.23
3672.0,0.2
3674.0,0.19
3676.0,0.22
3678.0,0.11
3680.0,0.0
3682.0,0.0
3684.0,0.0
3686.0,0.0
3688.0,0.07
3690.0,0.23
3692.0,0.29
3694.0,0.13
3696.0,0.0
3698.0,0.04
3700.0,0.0
3702.0,0.0
3704.0,0.09
3706.0,0.08
3708.0,0.1
3709.0,0.11
3712.0,0.0
3714.0,0.0
3716.0,0.0
3718.0,0.0
3720.0,0.0
3722.0,0.0
3724.0,0.0
3726.0,0.0
3728.0,0.0
3730.0,0.0
3732.0,0.0
3734.0,0.03
3736.0,0.03
3738.0,0.0
3740.0,0.0
3742.0,0.0
3744.0,0.0
3746.0,0.0
3748.0,0.0
3750.0,0.0
3752.0,0.0
3753.0,0.0
3756.0,0.0
3758.0,0.08
3760.0,0.15
3762.0,0.23
3764.0,0.42
3766.0,0.62
3768.0,0.9
3770.0,1.05
3772.0,1.04
3774.0,1.15
3776.0,1.25
3778.0,1.51
3780.0,1.96
3782.0,2.16
3784.0,2.1
3786.0,2.0
3788.0,2.17
3790.0,2.58
3792.0,3.3
3794.0,3.3
3795.0,3.3
3798.0,3.3
3800.0,3.3
3802.0,3.22
3804.0,2.99
3806.0,3.01
3808.0,3.22
3810.0,3.23
3812.0,3.3
3814.0,3.3
3816.0,3.3
3818.0,3.3
3820.0,3.05
3822.0,2.74
3824.0,2.5
3826.0,2.39
3828.0,2.54
3830.0,2.51
3832.0,2.39
3834.0,2.31
3836.0,2.32
3838.0,2.37
3840.0,2.28
3842.0,2.32
3844.0,2.25
3846.0,2.24
3848.0,1.92
3850.0,1.81
3852.0,1.65
3854.0,1.34
3856.0,1.16
3858.0,1.03
3860.0,0.85
3862.0,0.86
3864.0,0.76
3866.0,0.69
3868.0,0.9
3870.0,0.96
3872.0,1.04
3874.0,1.06
3876.0,1.12
3878.0,0.96
3880.0,0.75
3881.0,0.75
3884.0,1.23
3886.0,1.49
3888.0,1.79
3890.0,1.77
3892.0,1.75
3894.0,1.74
3896.0,1.66
3898.0,1.66
3900.0,1.57
3902.0,1.58
3904.0,1.63
3906.0,1.63
3908.0,1.88
3910.0,1.88
3912.0,1.9
3914.0,1.75
3916.0,1.63
3918.0,1.37
3920.0,1.1
3922.0,1.08
3924.0,1.06
3926.0,1.21
3928.0,1.55
3930.0,1.63
3932.0,1.28
3934.0,0.92
3936.0,0.73
3938.0,0.82
3940.0,0.69
3942.0,0.72
3944.0,0.63
3946.0,0.53
3948.0,0.7
3950.0,1.02
3952.0,1.33
3954.0,1.92
3956.0,2.07
3958.0,2.31
3960.0,2.53
3962.0,3.29
3964.0,3.3
3966.0,3.3
3968.0,3.3
3970.0,3.3
3972.0,3.0
3974.0,2.5
3976.0,2.2
3978.0,1.97
3980.0,1.63
3982.0,1.09
3984.0,0.76
3986.0,0.53
3988.0,0.87
3990.0,1.04
3992.0,1.28
3994.0,1.43
3996.0,1.66
3998.0,1.86
4000.0,1.97
4002.0,1.99
4004.0,3.3
4006.0,3.3
4008.0,3.3
4011.0,3.3
4012.0,3.3
4014.0,2.69
4016.0,2.5
4018.0,2.64
4020.0,2.6
4022.0,2.48
4024.0,2.21
4026.0,1.67
4028.0,2.17
4030.0,3.03
4032.0,3.27
4034.0,3.3
4036.0,3.13
4038.0,3.16
4040.0,3.03
4042.0,3.06
4044.0,2.87
4046.0,2.63
4048.0,2.26
4050.0,2.5
4052.0,2.31
4055.0,1.98
4056.0,1.92
4058.0,1.96
4060.0,2.22
4062.0,2.51
4064.0,2.69
4066.0,2.41
4068.0,2.47
4070.0,2.32
4072.0,2.19
4074.0,2.09
4076.0,1.83
4078.0,1.54
4080.0,1.58
4082.0,1.98
4084.0,2.34
4086.0,2.84
4088.0,3.25
4090.0,3.3
4092.0,3.3
4094.0,3.3
4097.0,3.3
4098.0,3.3
4100.0,3.28
4102.0,2.87
4104.0,2.43
4106.0,2.41
4108.0,2.54
4110.0,2.72
4112.0,2.45
4114.0,1.71
4116.0,1.52
4118.0,1.63
4120.0,1.82
4122.0,2.55
4124.0,3.0
4126.0,3.25
4128.0,3.3
4130.0,3.3
4132.0,3.3
4134.0,3.3
4136.0,3.3
4139.0,3.3
4141.0,3.3
4142.0,3.3
4144.0,3.3
4146.0,3.3
4148.0,3.3
4150.0,3.3
4152.0,3.3
4154.0,3.3
4156.0,3.3
4158.0,3.3
4160.0,3.3
4162.0,3.3
4164.0,3.3
4166.0,3.3
4168.0,3.3
4170.0,3.3
4172.0,3.3
4174.0,3.3
4176.0,3.3
4178.0,3.3
4180.0,3.3
4183.0,3.3
4184.0,3.19
4186.0,2.61
4188.0,2.52
4190.0,2.42
4192.0,2.09
4194.0,1.45
4196.0,1.11
4198.0,0.76
4200.0,0.0
4202.0,0.0
4204.0,0.0
4206.0,0.0
4208.0,0.0
4210.0,0.0
4212.0,0.0
4214.0,0.0
4216.0,0.0
4218.0,0.0
4220.0,0.0
4222.0,0.0
4225.0,0.0
4227.0,0.0
4228.0,0.0
4230.0,0.0
4232.0,0.0
4234.0,0.0
4236.0,0.0
4238.0,0.0
4240.0,0.0
4242.0,0.0
4244.0,0.0
4246.0,0.0
4248.0,0.0
4250.0,0.0
4252.0,0.0
4254.0,0.0
4256.0,0.0
4258.0,0.0
4260.0,0.0
4262.0,0.0
4264.0,0.0
4267.0,0.0
4269.0,0.0
4270.0,0.0
4272.0,0.0
4274.0,0.0
4276.0,0.0
4278.0,0.0
4280.0,0.24
4282.0,0.41
4284.0,0.6
4286.0,0.5
4288.0,0.41
4290.0,0.05
4292.0,0.0
4294.0,0.0
4296.0,0.0
4298.0,0.0
4300.0,0.0
4302.0,0.0
4304.0,0.0
4306.0,0.0
4308.0,0.06
4311.0,0.55
4313.0,0.77
4314.0,0.79
4316.0,0.83
4318.0,0.97
4320.0,0.9
4322.0,0.9
4324.0,1.0
4326.0,1.18
4328.0,1.22
4330.0,1.07
4332.0,0.95
4334.0,1.03
4336.0,1.07
4338.0,1.25
4340.0,1.23
4342.0,1.2
4344.0,0.99
4346.0,1.01
4348.0,0.98
4350.0,0.7
4353.0,0.17
4355.0,0.0
4356.0,0.0
4358.0,0.01
4360.0,0.2
4362.0,0.23
4364.0,0.08
4366.0,0.0
4368.0,0.0
4370.0,0.0
4372.0,0.0
4374.0,0.0
4376.0,0.06
4378.0,0.59
4380.0,1.09
4382.0,1.39
4384.0,1.31
4386.0,1.23
4388.0,1.25
4390.0,1.02
4392.0,0.93
4395.0,0.89
4397.0,0.8
4399.0,0.75
4400.0,0.72
4402.0,0.73
4404.0,0.65
4406.0,0.61
4408.0,0.65
4410.0,0.57
4412.0,0.53
4414.0,0.54
4416.0,0.58
4418.0,0.82
4420.0,0.75
4422.0,0.7
4424.0,0.79
4426.0,0.88
4428.0,0.89
4430.0,0.86
4432.0,0.83
4434.0,0.67
4436.0,0.78
4439.0,0.67
4441.0,0.21
4442.0,0.0
4444.0,0.0
4446.0,0.03
4448.0,0.25
4450.0,0.42
4452.0,0.52
4454.0,0.65
4456.0,0.93
4458.0,1.09
4460.0,1.13
4462.0,1.1
4464.0,1.02
4466.0,1.04
4468.0,1.21
4470.0,1.33
4472.0,1.31
4474.0,1.32
4476.0,1.27
4478.0,1.16
4481.0,0.75
4483.0,0.64
4485.0,0.56
4486.0,0.55
4488.0,0.65
4490.0,0.65
4492.0,0.73
4494.0,0.81
4496.0,0.92
4498.0,1.11
4500.0,1.09
4502.0,1.1
4504.0,0.97
4506.0,1.07
4508.0,1.28
4510.0,1.26
4512.0,1.31
4514.0,1.37
4516.0,1.4
4518.0,1.45
4520.0,1.38
4523.0,1.45
4525.0,1.41
4527.0,1.51
4529.0,1.47
4530.0,1.48
4532.0,1.4
4534.0,1.25
4536.0,1.2
4538.0,1.23
4540.0,1.07
4542.0,1.03
4544.0,0.73
4546.0,0.55
4548.0,0.23
4550.0,0.19
4552.0,0.31
4554.0,0.52
4556.0,0.63
4558.0,0.7
4560.0,0.61
4562.0,0.46
4564.0,0.41
4567.0,0.52
4569.0,0.59
4571.0,0.7
4572.0,0.81
4574.0,1.6
4576.0,2.41
4578.0,2.51
4580.0,2.53
4582.0,2.41
4584.0,2.25
4586.0,2.22
4588.0,2.13
4590.0,2.03
4592.0,2.0
4594.0,1.88
4596.0,1.88
4598.0,1.82
4600.0,1.82
4602.0,1.8
4604.0,1.86
4606.0,1.86
4609.0,1.8
4611.0,2.0
4613.0,2.41
4615.0,2.47
4616.0,2.59
4618.0,2.69
4620.0,2.72
4622.0,2.62
4624.0,2.44
4626.0,2.42
4628.0,2.35
4630.0,2.13
4632.0,1.98
4634.0,1.83
4636.0,1.85
4638.0,1.76
4640.0,1.68
4642.0,1.55
4644.0,1.3
4646.0,1.22
4648.0,1.11
4651.0,1.06
4653.0,0.94
4655.0,0.86
4657.0,0.73
4658.0,0.76
4660.0,0.69
4662.0,0.75
4664.0,0.85
4666.0,1.3
4668.0,1.62
4670.0,1.83
4672.0,1.87
4674.0,1.75
4676.0,1.67
4678.0,1.55
4680.0,1.29
4682.0,1.15
4684.0,1.02
4686.0,1.11
4688.0,1.14
4690.0,1.24
4692.0,1.32
4695.0,1.24
4697.0,1.4
4699.0,1.59
4701.0,1.57
4702.0,1.59
4704.0,1.39
4706.0,1.34
4708.0,1.31
4710.0,1.25
4712.0,1.15
4714.0,1.11
4716.0,1.21
4718.0,1.32
4720.0,1.24
4722.0,1.25
4724.0,1.15
4726.0,1.15
4728.0,1.09
4730.0,1.05
4732.0,0.9
4734.0,0.81
4737.0,0.8
4739.0,0.7
4741.0,0.65
4743.0,0.7
4745.0,0.75
4746.0,0.97
4748.0,1.07
4750.0,1.15
4752.0,1.21
4754.0,1.18
4756.0,1.3
4758.0,1.31
4760.0,1.25
4762.0,1.23
4764.0,1.2
4766.0,1.12
4768.0,1.14
4770.0,0.98
4772.0,0.91
4774.0,0.95
4776.0,1.31
4779.0,1.54
4781.0,1.53
4783.0,1.46
4785.0,1.25
4787.0,1.17
4789.0,1.28
4790.0,1.33
4792.0,1.4
4794.0,1.33
4796.0,1.26
4798.0,1.35
4800.0,1.5
4802.0,1.58
4804.0,1.68
4806.0,1.66
4808.0,1.47
4810.0,1.45
4812.0,1.5
4814.0,1.45
4816.0,1.66
4818.0,1.89
4820.0,2.02
4823.0,2.04
4825.0,1.97
4827.0,2.17
4829.0,2.1
4831.0,1.99
4832.0,1.86
4834.0,1.72
4836.0,1.79
4838.0,1.74
4840.0,1.6
4842.0,1.46
4844.0,1.35
4846.0,1.2
4848.0,1.21
4850.0,1.18
4852.0,1.12
4854.0,1.05
4856.0,1.03
4858.0,1.12
4860.0,1.17
4862.0,1.16
4865.0,1.05
4867.0,1.13
4869.0,1.21
4871.0,1.36
4873.0,1.42
4875.0,1.22
4876.0,1.39
4878.0,1.37
4880.0,1.38
4882.0,1.39
4884.0,1.52
4886.0,1.77
4888.0,1.74
4890.0,1.63
4892.0,1.65
4894.0,1.75
4896.0,1.7
4898.0,1.75
4900.0,1.8
4902.0,1.85
4904.0,1.73
4907.0,2.0
4909.0,1.93
4911.0,1.82
4913.0,1.74
4915.0,1.7
4917.0,1.61
4918.0,1.65
4920.0,1.56
4922.0,1.54
4924.0,1.62
4926.0,1.84
4928.0,2.0
4930.0,1.94
4932.0,1.89
4934.0,1.83
4936.0,1.85
4938.0,2.01
4940.0,2.09
4942.0,1.98
4944.0,1.93
4946.0,1.86
4948.0,2.0
4951.0,2.11
4953.0,2.28
4955.0,2.28
4957.0,2.28
4959.0,2.49
4961.0,2.86
4962.0,2.9
4964.0,2.8
4966.0,2.9
4968.0,3.15
4970.0,3.29
4972.0,3.3
4974.0,3.3
4976.0,3.3
4978.0,3.3
4980.0,3.3
4982.0,3.3
4984.0,3.3
4986.0,3.3
4988.0,3.26
4990.0,3.16
4993.0,2.98
4995.0,2.8
4997.0,2.73
4999.0,2.68
5001.0,2.64
5003.0,2.5
5004.0,2.4
5006.0,2.43
5008.0,2.26
5010.0,2.24
5012.0,2.09
5014.0,1.94
5016.0,1.84
5018.0,1.79
5020.0,1.82
5022.0,1.9
5024.0,1.81
5026.0,1.47
5028.0,1.39
5030.0,1.4
5032.0,0.97
5035.0,0.83
5037.0,0.94
5039.0,0.92
5041.0,0.87
5043.0,0.9
5045.0,0.75
5047.0,0.87
5048.0,0.91
5050.0,0.98
5052.0,0.94
5054.0,1.02
5056.0,1.12
5058.0,1.12
5060.0,1.11
5062.0,1.16
5064.0,1.09
5066.0,1.28
5068.0,1.42
5070.0,1.42
5072.0,1.43
5074.0,1.43
5076.0,1.54
5079.0,1.55
5081.0,1.5
5083.0,1.45
5085.0,1.47
5087.0,1.69
5089.0,1.75
5091.0,1.8
5092.0,1.78
5094.0,1.62
5096.0,1.63
5098.0,1.59
5100.0,1.54
5102.0,1.05
5104.0,0.94
5106.0,1.01
5108.0,1.16
5110.0,1.28
5112.0,1.23
5114.0,1.18
5116.0,1.13
5118.0,1.19
5121.0,1.23
5123.0,1.4
5125.0,1.6
5127.0,1.79
5129.0,1.8
5131.0,1.73
5133.0,1.55
5135.0,1.38
5136.0,1.5
5138.0,1.46
5140.0,1.42
5142.0,1.4
5144.0,1.31
5146.0,1.31
5148.0,1.05
5150.0,0.83
5152.0,0.82
5154.0,0.58
5156.0,0.42
5158.0,0.28
5160.0,0.16
5163.0,0.1
5165.0,0.05
5167.0,0.05
5169.0,0.0
5171.0,0.0
5173.0,0.0
5175.0,0.0
5177.0,0.0
5178.0,0.0
5180.0,0.0
5182.0,0.0
5184.0,0.0
5186.0,0.19
5188.0,0.21
5190.0,0.29
5192.0,0.32
5194.0,0.33
5196.0,0.43
5198.0,0.72
5200.0,1.19
5202.0,1.77
5204.0,2.11
5207.0,2.32
5209.0,2.45
5211.0,2.52
5213.0,2.47
5215.0,2.41
5217.0,2.44
5219.0,2.45
5221.0,2.49
5222.0,2.61
5224.0,2.48
5226.0,2.36
5228.0,1.67
5230.0,1.22
5232.0,1.07
5234.0,0.89
5236.0,0.91
5238.0,0.9
5240.0,0.69
5242.0,0.53
5244.0,0.6
5246.0,0.71
5249.0,0.93
5251.0,1.15
5253.0,1.25
5255.0,1.35
5257.0,1.59
5259.0,1.66
5261.0,1.71
5263.0,1.72
5264.0,1.69
5266.0,1.73
5268.0,1.92
5270.0,2.04
5272.0,2.12
5274.0,2.04
5276.0,2.12
5278.0,2.08
5280.0,2.03
5282.0,1.81
5284.0,1.71
5286.0,1.8
5288.0,1.74
5291.0,1.58
5293.0,1.37
5295.0,1.15
5297.0,1.17
5299.0,1.09
5301.0,1.11
5303.0,1.13
5305.0,1.08
5307.0,1.18
5308.0,1.17
5310.0,1.37
5312.0,1.5
5314.0,1.5
5316.0,1.32
5318.0,0.99
5320.0,0.6
5322.0,0.19
5324.0,0.0
5326.0,0.0
5328.0,0.0
5330.0,0.08
5332.0,0.13
5335.0,0.39
5337.0,0.7
5339.0,0.65
5341.0,0.65
5343.0,0.65
5345.0,0.7
5347.0,1.0
5349.0,1.26
5351.0,1.4
5352.0,1.45
5354.0,1.38
5356.0,1.61
5358.0,1.64
5360.0,1.71
5362.0,1.55
5364.0,1.52
5366.0,1.64
5368.0,1.8
5370.0,1.91
5372.0,1.83
5374.0,1.73
5377.0,1.8
5379.0,1.73
5381.0,1.71
5383.0,1.76
5385.0,1.78
5387.0,2.89
5389.0,3.3
5391.0,3.3
5393.0,3.3
5394.0,3.3
5396.0,3.17
5398.0,3.01
5400.0,2.76
5402.0,2.58
5404.0,2.36
5406.0,2.44
5408.0,2.52
5410.0,2.61
5412.0,2.68
5414.0,2.6
5416.0,2.28
5419.0,2.02
5421.0,1.8
5423.0,1.68
5425.0,1.65
5427.0,1.74
5429.0,1.88
5431.0,1.94
5433.0,1.76
5435.0,1.6
5437.0,1.52
5438.0,1.42
5440.0,1.39
5442.0,2.38
5444.0,3.3
5446.0,3.3
5448.0,3.3
5450.0,3.3
5452.0,3.3
5454.0,3.3
5456.0,3.3
5458.0,3.2
5460.0,2.96
5463.0,2.5
5465.0,2.25
5467.0,2.25
5469.0,2.35
5471.0,2.45
5473.0,2.45
5475.0,2.27
5477.0,2.15
5479.0,2.04
5480.0,1.95
5482.0,1.8
5484.0,1.77
5486.0,1.92
5488.0,2.03
5490.0,2.09
5492.0,2.13
5494.0,2.11
5496.0,2.18
5498.0,2.19
5500.0,2.38
5502.0,2.31
5505.0,2.53
5507.0,2.77
5509.0,2.88
5511.0,3.13
5513.0,3.13
5515.0,3.04
5517.0,3.18
5519.0,2.81
5521.0,2.58
5523.0,2.23
5524.0,2.04
5526.0,2.01
5528.0,1.89
5530.0,2.02
5532.0,1.96
5534.0,1.91
5536.0,1.93
5538.0,1.72
5540.0,1.51
5542.0,1.33
5544.0,1.31
5547.0,1.37
5549.0,1.56
5551.0,1.71
5553.0,1.68
5555.0,1.68
5557.0,1.85
5559.0,1.86
5561.0,1.75
5563.0,1.64
5565.0,1.57
5566.0,1.87
5568.0,2.01
5570.0,2.13
5572.0,2.03
5574.0,1.95
5576.0,1.94
5578.0,1.79
5580.0,1.72
5582.0,1.57
5584.0,1.64
5586.0,1.94
5588.0,1.95
5591.0,2.01
5593.0,1.97
5595.0,1.88
5597.0,1.93
5599.0,1.84
5601.0,1.63
5603.0,1.45
5605.0,1.34
5607.0,1.4
5609.0,1.4
5610.0,1.45
5612.0,1.22
5614.0,1.19
5616.0,1.24
5618.0,1.16
5620.0,1.04
5622.0,0.88
5624.0,0.81
5626.0,0.99
5628.0,1.07
5630.0,1.25
5633.0,1.35
5635.0,1.45
5637.0,1.37
5639.0,1.16
5641.0,1.09
5643.0,0.92
5645.0,0.87
5647.0,0.91
5649.0,0.95
5651.0,1.02
5652.0,1.14
5654.0,1.05
5656.0,1.29
5658.0,1.25
5660.0,1.15
5662.0,0.74
5664.0,0.35
5666.0,0.23
5668.0,0.15
5670.0,0.05
5672.0,0.0
5675.0,0.0
5677.0,0.0
5679.0,0.0
5681.0,0.0
5683.0,0.0
5685.0,0.0
5687.0,0.0
5689.0,0.0
5691.0,0.0
5693.0,0.0
5695.0,0.0
5696.0,0.0
5698.0,0.0
5700.0,0.0
5702.0,0.0
5704.0,0.0
5706.0,0.0
5708.0,0.0
5710.0,0.0
5712.0,0.0
5714.0,0.0
5716.0,0.0
5719.0,0.0
5721.0,0.0
5723.0,0.0
5725.0,0.0
5727.0,0.0
5729.0,0.13
5731.0,0.27
5733.0,0.28
5735.0,0.21
5737.0,0.21
5738.0,0.19
5740.0,0.1
5742.0,0.0
5744.0,0.0
5746.0,0.03
5748.0,0.27
5750.0,0.36
5752.0,0.39
5754.0,0.39
5756.0,0.35
5758.0,0.2
5761.0,0.0
5763.0,0.0
5765.0,0.0
5767.0,0.0
5769.0,0.0
5771.0,0.0
5773.0,0.0
5775.0,0.0
5777.0,0.0
5779.0,0.0
5781.0,0.0
5782.0,0.0
5784.0,0.0
5786.0,0.0
5788.0,0.0
5790.0,0.0
5792.0,0.0
5794.0,0.0
5796.0,0.0
5798.0,0.0
5800.0,0.0
5803.0,0.0
5805.0,0.0
5807.0,0.0
5809.0,0.12
5811.0,0.27
5813.0,0.33
5815.0,0.55
5817.0,0.69
5819.0,0.74
5821.0,0.71
5823.0,0.62
5825.0,0.79
5826.0,1.16
5828.0,1.42
5830.0,1.68
5832.0,1.67
5834.0,1.71
5836.0,1.79
5838.0,1.39
5840.0,1.04
5842.0,0.85
5844.0,0.83
5847.0,1.01
5849.0,1.28
5851.0,1.51
5853.0,1.47
5855.0,1.36
5857.0,1.26
5859.0,0.96
5861.0,0.75
5863.0,0.55
5865.0,0.51
5867.0,0.72
5869.0,0.99
5870.0,1.21
5872.0,1.22
5874.0,1.1
5876.0,1.02
5878.0,0.79
5880.0,0.65
5882.0,0.55
5884.0,0.84
5886.0,1.25
5889.0,1.41
5891.0,1.56
5893.0,1.56
5895.0,1.48
5897.0,1.36
5899.0,1.19
5901.0,0.99
5903.0,0.94
5905.0,1.03
5907.0,1.24
5909.0,1.42
5911.0,1.6
5912.0,1.64
5914.0,1.5
5916.0,1.37
5918.0,1.32
5920.0,1.15
5922.0,0.92
5924.0,0.7
5926.0,0.69
5928.0,0.47
5931.0,0.0
5933.0,0.0
5935.0,0.0
5937.0,0.0
5939.0,0.0
5941.0,0.0
5943.0,0.0
5945.0,0.0
5947.0,0.0
5949.0,0.32
5951.0,0.52
5953.0,0.7
5955.0,1.01
5956.0,1.2
5958.0,1.2
5960.0,1.33
5962.0,1.31
5964.0,1.42
5966.0,1.77
5968.0,2.26
5970.0,2.52
5972.0,2.45
5975.0,2.42
5977.0,1.87
5979.0,1.46
5981.0,1.31
5983.0,1.36
5985.0,1.54
5987.0,1.89
5989.0,2.25
5991.0,2.47
5993.0,2.31
5995.0,2.07
5997.0,2.39
5999.0,3.3
6000.0,3.3
6002.0,3.3
6004.0,3.3
6006.0,3.3
6008.0,3.3
6010.0,3.3
6012.0,3.3
6014.0,3.3
6017.0,3.3
6019.0,3.27
6021.0,2.95
6023.0,2.66
6025.0,2.65
6027.0,2.78
6029.0,2.81
6031.0,2.82
6033.0,2.7
6035.0,2.74
6037.0,2.66
6039.0,2.34
6041.0,2.04
6043.0,1.83
6044.0,1.8
6046.0,1.86
6048.0,1.94
6050.0,2.02
6052.0,2.05
6054.0,1.98
6056.0,1.83
6059.0,1.62
6061.0,1.6
6063.0,1.34
6065.0,1.4
6067.0,1.58
6069.0,2.08
6071.0,2.18
6073.0,2.11
6075.0,1.97
6077.0,1.92
6079.0,1.69
6081.0,1.55
6083.0,1.4
6085.0,1.67
6087.0,2.06
6088.0,2.4
6090.0,2.52
6092.0,2.48
6094.0,2.6
6096.0,2.64
6098.0,2.56
6100.0,2.38
6103.0,2.47
6105.0,2.59
6107.0,2.6
6109.0,2.64
6111.0,2.71
6113.0,2.76
6115.0,2.68
6117.0,2.59
6119.0,2.65
6121.0,3.18
6123.0,3.3
6125.0,3.3
6127.0,3.3
6129.0,3.3
6130.0,3.3
6132.0,3.3
6134.0,3.3
6136.0,3.3
6138.0,3.3
6140.0,3.3
6142.0,3.3
6145.0,3.3
6147.0,3.3
6149.0,3.3
6151.0,3.3
6153.0,3.3
6155.0,3.3
6157.0,3.3
6159.0,3.3
6161.0,3.3
6163.0,3.3
6165.0,3.3
6167.0,3.3
6169.0,3.3
6171.0,3.3
6173.0,3.3
6174.0,3.3
6176.0,3.3
6178.0,3.3
6180.0,3.3
6182.0,3.3
6184.0,3.3
6187.0,3.3
6189.0,3.3
6191.0,3.3
6193.0,3.3
6195.0,3.3
6197.0,3.3
6199.0,3.3
6201.0,2.92
6203.0,1.93
6205.0,1.55
6207.0,1.85
6209.0,2.82
6211.0,3.3
6213.0,3.3
6215.0,3.07
6217.0,1.8
6218.0,0.86
6220.0,0.0
6222.0,0.0
6224.0,0.0
6226.0,0.0
6228.0,0.59
6231.0,1.45
6233.0,2.08
6235.0,2.0
6237.0,2.1
6239.0,2.04
6241.0,2.87
6243.0,2.78
6245.0,1.55
6247.0,1.04
6249.0,1.37
6251.0,2.14
6253.0,2.06
6255.0,2.52
6257.0,2.73
6259.0,2.82
6261.0,2.67
6262.0,3.3
6264.0,3.3
6266.0,3.3
6268.0,3.3
6270.0,3.3
6273.0,3.3
6275.0,3.3
6277.0,3.3
6279.0,3.3
6281.0,3.3
6283.0,3.3
6285.0,3.3
6287.0,3.3
6289.0,3.3
6291.0,3.3
6293.0,3.3
6295.0,3.3
6297.0,3.3
6299.0,3.3
6301.0,3.3
6303.0,3.3
6305.0,3.3
6306.0,3.3
6308.0,3.3
6310.0,3.3
6312.0,3.3
6315.0,3.3
6317.0,3.3
6319.0,3.3
6321.0,3.3
6323.0,3.3
6325.0,3.3
6327.0,3.3
6329.0,0.68
6331.0,0.0
6333.0,0.0
6335.0,0.0
6337.0,0.0
6339.0,0.0
6341.0,0.0
6343.0,0.0
6345.0,0.0
6347.0,0.0
6349.0,0.43
6350.0,0.79
6352.0,0.46
6354.0,0.23
6356.0,0.0
6359.0,0.0
6361.0,0.0
6363.0,0.1
6365.0,0.97
6367.0,1.48
6369.0,1.75
6371.0,2.02
6373.0,2.3
6375.0,2.28
6377.0,1.51
6379.0,1.27
6381.0,0.72
6383.0,0.29
6385.0,0.12
6387.0,0.45
6389.0,2.07
6391.0,2.44
6393.0,2.58
6394.0,1.61
6396.0,1.35
6398.0,1.25
6401.0,1.04
6403.0,1.36
6405.0,1.94
6407.0,2.6
6409.0,3.3
6411.0,3.3
6413.0,3.3
6415.0,3.3
6417.0,2.94
6419.0,1.56
6421.0,0.0
6423.0,0.0
6425.0,0.0
6427.0,0.0
6429.0,0.0
6431.0,0.0
6433.0,0.0
6435.0,0.0
6436.0,0.0
6438.0,0.0
6440.0,0.0
6443.0,0.0
6445.0,0.0
6447.0,0.0
6449.0,0.0
6451.0,0.0
6453.0,0.0
6455.0,0.0
6457.0,0.0
6459.0,0.0
6461.0,0.0
6463.0,0.0
6465.0,0.0
6467.0,0.0
6469.0,0.0
6471.0,0.0
6473.0,0.0
6475.0,0.0
6477.0,0.0
6479.0,0.0
6480.0,0.0
6482.0,0.0
6484.0,0.03
6487.0,0.68
6489.0,1.34
6491.0,1.65
6493.0,1.51
6495.0,1.47
6497.0,1.39
6499.0,1.17
6501.0,0.95
6503.0,1.14
6505.0,1.33
6507.0,1.51
6509.0,1.63
6511.0,1.83
6513.0,1.84
6515.0,1.62
6517.0,1.19
6519.0,0.0
6521.0,0.0
6522.0,0.0
6524.0,0.0
6526.0,0.0
6529.0,0.0
6531.0,0.0
6533.0,0.0
6535.0,0.0
6537.0,0.0
6539.0,0.0
6541.0,0.0
6543.0,0.0
6545.0,0.0
6547.0,0.0
6549.0,0.35
6551.0,0.44
6553.0,0.57
6555.0,0.39
6557.0,0.01
6559.0,0.0
6561.0,0.0
6563.0,0.0
6565.0,0.0
6566.0,0.46
6568.0,0.83
6571.0,1.54
6573.0,1.81
6575.0,2.13
6577.0,1.92
6579.0,1.43
6581.0,0.97
6583.0,0.97
6585.0,0.93
6587.0,1.41
6589.0,1.81
6591.0,2.21
6593.0,1.9
6595.0,2.14
6597.0,2.43
6599.0,2.2
6601.0,1.24
6603.0,0.35
6605.0,0.6
6607.0,0.88
6608.0,1.37
6610.0,1.65
6612.0,1.95
6615.0,2.38
6617.0,2.37
6619.0,2.62
6621.0,2.05
6623.0,1.36
6625.0,1.5
6627.0,2.1
6629.0,2.4
6631.0,2.39
6633.0,2.51
6635.0,2.1
6637.0,1.24
6639.0,0.77
6641.0,0.68
6643.0,0.79
6645.0,1.24
6647.0,1.63
6649.0,1.82
6651.0,1.93
6652.0,1.75
6654.0,1.46
6657.0,1.26
6659.0,0.73
6661.0,0.59
6663.0,0.7
6665.0,0.91
6667.0,1.36
6669.0,1.87
6671.0,2.1
6673.0,1.78
6675.0,1.66
6677.0,1.18
6679.0,0.85
6681.0,0.7
6683.0,0.87
6685.0,1.61
6687.0,1.93
6689.0,2.16
6691.0,2.37
6693.0,2.61
6694.0,2.64
6696.0,2.51
6699.0,2.22
6701.0,1.66
6703.0,1.22
6705.0,1.69
6707.0,2.14
6709.0,2.56
6711.0,2.47
6713.0,2.26
6715.0,2.51
6717.0,2.18
6719.0,1.79
6721.0,2.07
6723.0,2.33
6725.0,2.52
6727.0,3.3
6729.0,3.3
6731.0,3.3
6733.0,3.3
6735.0,3.3
6737.0,3.3
6738.0,3.3
6740.0,3.06
6743.0,2.84
6745.0,2.72
6747.0,2.34
6749.0,2.55
6751.0,2.6
6753.0,2.62
6755.0,2.51
6757.0,2.27
6759.0,1.8
6761.0,1.43
6763.0,1.47
6765.0,1.49
6767.0,2.5
6769.0,3.3
6771.0,3.3
6773.0,3.3
6775.0,3.3
6777.0,3.02
6779.0,2.75
6781.0,2.25
6782.0,2.0
6785.0,2.22
6787.0,2.53
6789.0,2.78
6791.0,2.35
6793.0,2.15
6795.0,2.08
6797.0,1.34
6799.0,0.4
6801.0,0.0
6803.0,0.0
6805.0,0.18
6807.0,0.45
6809.0,0.79
6811.0,0.86
6813.0,0.9
6815.0,1.12
6817.0,0.96
6819.0,0.68
6821.0,0.0
6823.0,0.03
6825.0,0.6
6827.0,0.92
6829.0,1.37
6831.0,1.56
6833.0,1.54
6835.0,1.61
6837.0,1.21
6839.0,0.98
6841.0,0.68
6843.0,0.55
6845.0,0.8
6847.0,1.05
6849.0,1.13
6851.0,1.05
6853.0,0.84
6855.0,0.77
6857.0,0.59
6859.0,0.08
6861.0,0.0
6863.0,0.0
6865.0,0.0
6867.0,0.03
6868.0,0.02
6871.0,0.0
6873.0,0.0
6875.0,0.1
6877.0,0.0
6879.0,0.0
6881.0,0.0
6883.0,0.0
6885.0,0.0
6887.0,0.0
6889.0,0.0
6891.0,0.0
6893.0,0.0
6895.0,0.0
6897.0,0.0
6899.0,0.0
6901.0,0.0
6903.0,0.0
6905.0,0.0
6907.0,0.34
6909.0,0.91
6912.0,1.37
6913.0,1.6
6915.0,1.59
6917.0,1.46
6919.0,1.12
6921.0,0.75
6923.0,0.77
6925.0,1.4
6927.0,1.7
6929.0,1.94
6931.0,2.05
6933.0,1.89
6935.0,1.8
6937.0,1.39
6939.0,0.99
6941.0,0.78
6943.0,0.78
6945.0,0.88
6947.0,1.56
6949.0,1.99
6951.0,2.17
6953.0,2.2
6956.0,2.04
6957.0,1.67
6959.0,1.35
6961.0,1.23
6963.0,0.88
6965.0,1.14
6967.0,1.67
6969.0,2.04
6971.0,1.83
6973.0,1.7
6975.0,1.61
6977.0,1.27
6979.0,0.98
6981.0,0.53
6983.0,0.25
6985.0,0.85
6987.0,1.12
6989.0,1.28
6991.0,1.33
6993.0,1.26
6995.0,1.04
6998.0,0.97
6999.0,0.89
7001.0,0.34
7003.0,0.3
7005.0,0.86
7007.0,1.17
7009.0,1.21
7011.0,1.24
7013.0,1.54
7015.0,1.28
7017.0,0.78
7019.0,0.3
7021.0,0.07
7023.0,0.14
7025.0,0.46
7027.0,0.44
7029.0,0.12
7031.0,0.84
7033.0,0.77
7035.0,0.5
7037.0,0.19
7040.0,0.0
7042.0,0.0
7043.0,0.0
7045.0,0.24
7047.0,0.77
7049.0,1.09
7051.0,1.14
7053.0,1.09
7055.0,0.97
7057.0,0.57
7059.0,0.0
7061.0,0.0
7063.0,0.34
7065.0,0.93
7067.0,1.35
7069.0,1.61
7071.0,1.78
7073.0,1.83
7075.0,1.45
7077.0,0.9
7079.0,0.52
7081.0,0.07
7084.0,0.03
7086.0,0.55
7087.0,1.55
7089.0,2.35
7091.0,2.6
7093.0,2.43
7095.0,2.26
7097.0,1.99
7099.0,1.51
7101.0,0.92
7103.0,0.99
7105.0,1.29
7107.0,1.65
7109.0,2.15
7111.0,2.28
7113.0,2.35
7115.0,2.36
7117.0,2.0
7119.0,1.74
7121.0,1.6
7123.0,1.82
7126.0,2.05
7128.0,2.14
7130.0,2.38
7131.0,2.65
7133.0,2.74
7135.0,2.79
7137.0,1.81
7139.0,1.02
7141.0,0.61
7143.0,0.38
7145.0,0.7
7147.0,0.77
7149.0,0.37
7151.0,0.13
7153.0,0.16
7155.0,0.29
7157.0,1.01
7159.0,1.8
7161.0,2.31
7163.0,2.85
7165.0,3.3
7168.0,3.3
7170.0,3.3
7172.0,3.27
7174.0,2.86
7175.0,3.11
7177.0,2.86
7179.0,2.54
7181.0,1.71
7183.0,1.7
7185.0,1.83
7187.0,2.35
7189.0,2.7
7191.0,2.2
7193.0,1.85
7195.0,1.38
7197.0,0.85
7199.0,0.0
7201.0,0.0
7203.0,0.0
7205.0,0.0
7207.0,0.0
7209.0,0.0
7212.0,0.0
7214.0,0.22
7216.0,0.6
7218.0,0.55
7219.0,0.68
7221.0,0.64
7223.0,0.93
7225.0,1.46
7227.0,2.35
7229.0,2.96
7231.0,3.3
7233.0,3.21
7235.0,2.7
7237.0,2.24
7239.0,1.62
7241.0,1.4
7243.0,1.28
7245.0,1.16
7247.0,1.61
7249.0,0.77
7251.0,0.67
7254.0,1.15
7256.0,0.7
7258.0,0.0
7260.0,0.0
7261.0,0.0
7263.0,0.0
7265.0,0.0
7267.0,0.0
7269.0,0.0
7271.0,0.0
7273.0,0.0
7275.0,0.0
7277.0,0.0
7279.0,0.0
7281.0,0.0
7283.0,0.0
7285.0,0.0
7287.0,0.11
7289.0,0.89
7291.0,1.2
7293.0,0.72
7296.0,0.0
7298.0,0.0
7300.0,0.0
7302.0,0.0
7304.0,0.0
7305.0,0.0
7307.0,0.0
7309.0,0.0
7311.0,0.0
7313.0,0.0
7315.0,0.02
7317.0,0.0
7319.0,0.0
7321.0,0.0
7323.0,0.01
7325.0,0.58
7327.0,1.34
7329.0,1.6
7331.0,1.59
7333.0,1.55
7335.0,1.3
7337.0,0.99
7340.0,0.66
7342.0,0.82
7344.0,1.02
7346.0,2.25
7348.0,3.3
7349.0,3.3
7351.0,3.28
7353.0,2.76
7355.0,1.21
7357.0,0.05
7359.0,0.0
7361.0,0.0
7363.0,0.0
7365.0,0.26
7367.0,0.7
7369.0,0.89
7371.0,0.51
7373.0,0.56
7375.0,0.75
7377.0,1.69
7379.0,1.52
7382.0,1.22
7384.0,1.47
7386.0,2.57
7388.0,3.03
7390.0,3.2
7392.0,3.1
7393.0,2.7
7395.0,2.7
7397.0,2.52
7399.0,2.5
7401.0,0.0
7403.0,0.0
7405.0,0.0
7407.0,0.0
7409.0,0.0
7411.0,0.0
7413.0,0.0
7415.0,0.0
7417.0,0.0
7419.0,0.0
7421.0,0.0
7424.0,0.0
7426.0,0.0
7428.0,0.0
7430.0,0.0
7432.0,0.0
7434.0,0.3
7436.0,1.3
7437.0,1.63
7439.0,1.68
7441.0,1.32
7443.0,1.73
7445.0,3.0
7447.0,3.3
7449.0,3.3
7451.0,3.3
7453.0,3.3
7455.0,3.3
7457.0,3.3
7459.0,3.3
7461.0,3.3
7463.0,3.3
7465.0,3.3
7468.0,3.3
7470.0,3.3
7472.0,3.3
7474.0,3.3
7476.0,3.3
7478.0,3.3
7479.0,3.3
7481.0,3.3
7483.0,3.3
7485.0,3.3
7487.0,3.3
7489.0,3.3
7491.0,3.3
7493.0,3.3
7495.0,3.3
7497.0,3.3
7499.0,3.3
7501.0,3.3
7503.0,3.3
7505.0,3.3
7507.0,3.3
7510.0,3.3
7512.0,3.3
7514.0,3.3
7516.0,3.3
7518.0,3.3
7520.0,3.3
7522.0,3.3
7523.0,3.3
7525.0,3.3
7527.0,3.3
7529.0,3.3
7531.0,3.3
7533.0,3.3
7535.0,3.3
7537.0,3.25
7539.0,2.92
7541.0,2.85
7543.0,3.28
7545.0,3.3
7547.0,3.3
7549.0,3.3
7552.0,3.3
7554.0,3.3
7556.0,3.3
7558.0,3.3
7560.0,3.3
7562.0,3.14
7564.0,3.3
7566.0,3.3
7567.0,3.3
7569.0,3.3
7571.0,3.27
7573.0,3.04
7575.0,3.12
7577.0,2.66
7579.0,2.02
7581.0,1.8
7583.0,2.6
7585.0,3.3
7587.0,3.3
7589.0,3.3
7591.0,3.3
7593.0,3.3
7596.0,3.23
7598.0,2.54
7600.0,1.86
7602.0,1.63
7604.0,2.0
7606.0,1.95
7608.0,1.94
7610.0,1.34
7611.0,1.18
7613.0,0.93
7615.0,0.44
7617.0,0.01
7619.0,0.34
7621.0,0.53
7623.0,0.85
7625.0,1.23
7627.0,1.8
7629.0,1.82
7631.0,1.7
7633.0,1.6
7635.0,1.35
7638.0,0.87
7640.0,0.42
7642.0,0.43
7644.0,0.95
7646.0,1.08
7648.0,1.42
7650.0,1.36
7652.0,1.69
7654.0,1.5
7655.0,1.11
7657.0,0.4
7659.0,0.0
7661.0,0.0
7663.0,0.0
7665.0,0.01
7667.0,0.43
7669.0,0.56
7671.0,0.5
7673.0,0.89
7675.0,0.95
7677.0,1.09
7680.0,0.79
7682.0,0.88
7684.0,0.92
7686.0,1.31
7688.0,1.8
7690.0,1.71
7692.0,1.71
7694.0,1.66
7696.0,1.67
7698.0,1.12
7699.0,0.81
7701.0,0.73
7703.0,1.15
7705.0,1.38
7707.0,1.82
7709.0,1.57
7711.0,1.23
7713.0,0.96
7715.0,0.89
7717.0,0.53
7719.0,0.02
7721.0,0.0
7724.0,0.0
7726.0,0.35
7728.0,1.09
7730.0,1.09
7732.0,1.16
7734.0,1.29
7736.0,0.9
7738.0,0.48
7740.0,0.0
7741.0,0.0
7743.0,0.2
7745.0,0.51
7747.0,1.12
7749.0,1.5
7751.0,1.57
7753.0,1.61
7755.0,1.46
7757.0,1.19
7759.0,0.54
7761.0,0.54
7763.0,1.06
7766.0,2.09
7768.0,2.87
7770.0,2.71
7772.0,2.46
7774.0,2.16
7776.0,1.8
7778.0,1.27
7780.0,1.07
7782.0,1.13
7784.0,1.26
7785.0,1.75
7787.0,2.13
7789.0,2.14
7791.0,1.9
7793.0,1.75
7795.0,1.37
7797.0,0.84
7799.0,0.57
7801.0,0.54
7803.0,0.8
7805.0,1.58
7808.0,2.21
7810.0,2.16
7812.0,1.4
7814.0,0.93
7816.0,0.89
7818.0,0.66
7820.0,0.35
7822.0,0.29
7824.0,0.62
7826.0,1.15
7828.0,1.38
7829.0,1.07
7831.0,0.75
7833.0,0.66
7835.0,0.29
7837.0,0.0
7839.0,0.0
7841.0,0.0
7843.0,0.0
7845.0,0.46
7847.0,0.99
7849.0,0.85
7852.0,0.91
7854.0,1.13
7856.0,0.87
7858.0,0.75
7860.0,0.43
7862.0,0.37
7864.0,0.5
7866.0,0.95
7868.0,1.6
7870.0,1.83
7871.0,1.62
7873.0,1.68
7875.0,1.61
7877.0,1.18
7879.0,0.84
7881.0,0.98
7883.0,1.43
7885.0,2.04
7887.0,2.28
7889.0,2.3
7891.0,2.27
7894.0,2.39
7896.0,2.23
7898.0,1.83
7900.0,1.42
7902.0,1.35
7904.0,1.59
7906.0,2.25
7908.0,2.56
7910.0,2.51
7912.0,2.12
7914.0,2.42
7915.0,2.24
7917.0,1.75
7919.0,1.1
7921.0,0.0
7923.0,0.0
7925.0,0.66
7927.0,0.95
7929.0,0.75
7931.0,0.75
7933.0,0.77
7936.0,0.43
7938.0,0.18
7940.0,0.04
7942.0,0.0
7944.0,0.0
7946.0,0.6
7948.0,1.07
7950.0,0.98
7952.0,0.92
7954.0,0.62
7956.0,0.0
7958.0,0.0
7959.0,0.0
7961.0,0.0
7963.0,0.0
7965.0,0.36
7967.0,0.86
7969.0,0.85
7971.0,1.04
7973.0,1.02
7975.0,0.55
7977.0,0.0
7980.0,0.0
7982.0,0.0
7984.0,0.46
7986.0,1.36
7988.0,1.74
7990.0,1.55
7992.0,1.49
7994.0,1.41
7996.0,1.02
7998.0,0.42
8000.0,0.11
8002.0,0.3
8003.0,0.81
8005.0,1.82
8007.0,2.5
8009.0,2.39
8011.0,2.23
8013.0,2.04
8015.0,1.82
8017.0,1.12
8019.0,0.86
8022.0,1.35
8024.0,1.82
8026.0,2.5
8028.0,2.89
8030.0,3.2
8032.0,3.08
8034.0,3.25
8036.0,3.11
8038.0,3.03
8040.0,2.45
8042.0,2.63
8044.0,3.15
8045.0,3.3
8047.0,3.3
8049.0,3.3
8051.0,3.3
8053.0,3.3
8055.0,3.3
8057.0,3.3
8059.0,3.3
8061.0,3.3
8064.0,3.3
8066.0,3.3
8068.0,3.3
8070.0,3.3
8072.0,3.3
8074.0,3.3
8076.0,3.3
8078.0,3.3
8080.0,3.3
8082.0,3.3
8084.0,3.3
8086.0,3.3
8087.0,3.3
8089.0,3.3
8091.0,3.3
8093.0,3.3
8095.0,3.3
8097.0,2.87
8099.0,1.61
8101.0,1.44
8103.0,1.88
8105.0,2.53
8108.0,2.56
8110.0,2.88
8112.0,2.38
8114.0,1.83
8116.0,1.15
8118.0,0.33
8120.0,0.0
8122.0,0.0
8124.0,0.13
8126.0,1.31
8128.0,2.21
8130.0,1.64
8131.0,0.68
8133.0,0.58
8135.0,0.63
8137.0,0.0
8139.0,0.01
8141.0,0.41
8143.0,1.2
8145.0,2.61
8147.0,3.1
8150.0,2.74
8152.0,3.21
8154.0,2.79
8156.0,2.18
8158.0,1.94
8160.0,1.58
8162.0,2.02
8164.0,3.3
8166.0,3.3
8168.0,3.3
8170.0,3.3
8172.0,3.3
8173.0,3.3
8175.0,3.3
8177.0,3.3
8179.0,3.3
8181.0,3.3
8183.0,3.3
8185.0,3.3
8187.0,3.3
8189.0,3.3
8192.0,3.3
8194.0,3.3
8196.0,3.3
8198.0,3.3
8200.0,3.3
8202.0,3.3
8204.0,3.3
8206.0,3.3
8208.0,3.3
8210.0,3.3
8212.0,3.3
8214.0,3.3
8216.0,3.3
8217.0,3.3
8219.0,3.3
8221.0,3.3
8223.0,3.3
8225.0,3.3
8227.0,3.3
8229.0,3.3
8231.0,3.3
8233.0,3.3
8236.0,3.3
8238.0,3.3
8240.0,3.3
8242.0,3.3
8244.0,3.3
8246.0,3.3
8248.0,3.3
8250.0,3.3
8252.0,3.3
8254.0,3.3
8256.0,3.3
8258.0,3.3
8259.0,3.3
8261.0,3.3
8263.0,3.3
8265.0,3.3
8267.0,3.3
8269.0,3.3
8271.0,3.3
8273.0,3.3
8275.0,3.3
8278.0,3.3
8280.0,3.3
8282.0,3.3
8284.0,3.3
8286.0,3.3
8288.0,3.3
8290.0,3.3
8292.0,3.3
8294.0,3.3
8296.0,3.3
8298.0,3.3
8300.0,3.3
8302.0,3.3
8303.0,3.3
8305.0,3.3
8307.0,3.3
8309.0,3.3
8311.0,3.3
8313.0,3.3
8315.0,3.3
8317.0,3.3
8320.0,3.3
8322.0,3.3
8324.0,3.3
8326.0,3.3
8328.0,3.3
8330.0,3.3
8332.0,3.3
8334.0,3.24
8336.0,2.62
8338.0,1.46
8340.0,1.03
8342.0,1.2
8344.0,1.93
8346.0,2.55
8347.0,3.08
8349.0,2.76
8351.0,2.6
8353.0,2.86
8355.0,2.04
8357.0,1.09
8359.0,0.54
8361.0,0.77
8364.0,1.56
8366.0,2.49
8368.0,2.88
8370.0,2.53
8372.0,2.03
8374.0,1.06
8376.0,0.63
8378.0,0.0
8380.0,0.0
8382.0,0.0
8384.0,0.0
8386.0,0.0
8388.0,0.0
8389.0,0.0
8391.0,0.0
8393.0,0.0
8395.0,0.0
8397.0,0.0
8399.0,0.0
8401.0,0.0
8403.0,0.0
8406.0,0.0
8408.0,0.0
8410.0,0.0
8412.0,0.0
8414.0,0.0
8416.0,0.0
8418.0,0.0
8420.0,0.0
8422.0,0.0
8424.0,0.0
8426.0,0.0
8428.0,0.0
8430.0,0.0
8431.0,0.0
8433.0,0.0
8435.0,0.0
8437.0,0.0
8439.0,0.0
8441.0,0.0
8443.0,0.0
8445.0,0.0
8448.0,0.0
8450.0,0.0
8452.0,0.0
8454.0,0.0
8456.0,0.0
8458.0,0.0
8460.0,0.0
8462.0,0.0
8464.0,0.0
8466.0,0.0
8468.0,0.0
8470.0,0.0
8472.0,0.0
8474.0,0.0
8475.0,0.0
8477.0,0.0
8479.0,0.0
8481.0,0.0
8483.0,0.0
8485.0,0.0
8487.0,0.0
8489.0,0.0
8492.0,0.0
8494.0,0.0
8496.0,0.0
8498.0,0.0
8500.0,0.0
8502.0,0.0
8504.0,0.0
8506.0,0.0
8508.0,0.0
8510.0,0.0
8512.0,0.0
8514.0,0.0
8516.0,0.0
8517.0,0.0
8519.0,0.0
8521.0,0.0
8523.0,0.0
8525.0,0.0
8527.0,0.0
8529.0,0.0
8531.0,0.0
8534.0,0.0
8536.0,0.0
8538.0,0.0
8540.0,0.0
8542.0,0.0
8544.0,0.0
8546.0,0.12
8548.0,0.06
8550.0,0.0
8552.0,0.0
8554.0,0.0
8556.0,0.0
8558.0,0.0
8560.0,0.0
8561.0,0.0
8563.0,0.0
8565.0,0.0
8567.0,0.16
8569.0,0.31
8571.0,0.0
8573.0,0.0
8576.0,0.0
8578.0,0.0
8580.0,0.0
8582.0,0.0
8584.0,0.18
8586.0,1.25
8588.0,1.75
8590.0,1.58
8592.0,1.22
8594.0,0.71
8596.0,0.0
8598.0,0.0
8600.0,0.0
8602.0,0.0
8604.0,0.23
8605.0,1.26
8607.0,1.5
8609.0,1.55
8611.0,0.79
8613.0,0.28
8615.0,0.0
8617.0,0.0
8620.0,0.0
8622.0,0.0
8624.0,0.7
8626.0,1.74
8628.0,2.01
8630.0,1.55
8632.0,0.85
8634.0,0.39
8636.0,0.0
8638.0,0.0
8640.0,0.0
8642.0,0.0
8644.0,0.64
8646.0,1.78
8647.0,1.94
8649.0,1.66
8651.0,1.39
8653.0,0.73
8655.0,0.0
8657.0,0.0
8659.0,0.0
8662.0,0.0
8664.0,0.95
8666.0,2.25
8668.0,2.59
8670.0,2.14
8672.0,1.44
8674.0,1.11
8676.0,0.85
8678.0,0.0
8680.0,0.0
8682.0,0.06
8684.0,1.26
8686.0,2.41
8688.0,2.65
8690.0,2.28
8691.0,1.66
8693.0,0.88
8695.0,0.22
8697.0,0.0
8699.0,0.02
8701.0,0.63
8704.0,1.88
8706.0,2.95
8708.0,3.18
8710.0,2.95
8712.0,2.51
8714.0,1.83
8716.0,0.88
8718.0,0.0
8720.0,0.0
8722.0,0.04
8724.0,1.03
8726.0,2.1
8728.0,2.32
8730.0,1.99
8732.0,1.5
8734.0,0.68
8735.0,0.0
8737.0,0.0
8739.0,0.0
8741.0,0.0
8743.0,0.47
8745.0,1.22
8748.0,1.19
8750.0,0.77
8752.0,0.24
8754.0,0.0
8756.0,0.0
8758.0,0.0
8760.0,0.0
8762.0,0.0
8764.0,0.45
8766.0,1.77
8768.0,2.04
8770.0,1.36
8772.0,0.38
8774.0,0.0
8776.0,0.0
8778.0,0.0
8779.0,0.0
8781.0,0.0
8783.0,0.64
8785.0,1.75
8787.0,1.97
8790.0,1.65
8792.0,1.17
8794.0,0.61
8796.0,0.0
8798.0,0.0
8800.0,0.0
8802.0,0.11
8804.0,1.22
8806.0,2.15
8808.0,2.12
8810.0,1.89
8812.0,1.42
8814.0,0.76
8816.0,0.0
8818.0,0.0
8820.0,0.0
8822.0,0.0
8823.0,0.96
8825.0,2.28
8827.0,2.47
8829.0,2.02
8832.0,1.34
8834.0,0.44
8836.0,0.0
8838.0,0.0
8840.0,0.0
8842.0,0.0
8844.0,0.93
8846.0,2.03
8848.0,1.95
8850.0,1.38
8852.0,1.49
8854.0,1.09
8856.0,0.11
8858.0,0.0
8860.0,0.0
8862.0,0.01
8864.0,0.96
8866.0,1.9
8867.0,1.97
8869.0,1.7
8871.0,1.17
8873.0,0.46
8876.0,0.0
8878.0,0.0
8880.0,0.0
8882.0,0.07
8884.0,1.42
8886.0,2.63
8888.0,2.77
8890.0,2.16
8892.0,1.6
8894.0,0.85
8896.0,0.0
8898.0,0.0
8900.0,0.0
8902.0,0.3
8904.0,1.72
8906.0,2.69
8908.0,2.72
8910.0,2.4
8911.0,2.0
8913.0,1.44
8915.0,0.67
8918.0,0.0
8920.0,0.0
8922.0,0.67
8924.0,2.12
8926.0,3.11
8928.0,3.16
8930.0,2.81
8932.0,2.47
8934.0,1.85
8936.0,0.92
8938.0,0.0
8940.0,0.03
8942.0,0.8
8944.0,2.22
8946.0,3.26
8948.0,3.3
8950.0,3.14
8952.0,2.48
8953.0,1.57
8955.0,0.57
8957.0,0.0
8960.0,0.0
8962.0,0.44
8964.0,1.95
8966.0,3.04
8968.0,3.09
8970.0,2.77
8972.0,2.0
8974.0,1.38
8976.0,0.38
8978.0,0.0
8980.0,0.0
8982.0,0.76
8984.0,2.38
8986.0,3.3
8988.0,3.26
8990.0,2.78
8992.0,2.06
8994.0,1.05
8996.0,0.22
8997.0,0.0
8999.0,0.0
9001.0,0.95
9004.0,2.6
9006.0,3.3
9008.0,2.72
9010.0,2.07
9012.0,1.97
9014.0,1.27
9016.0,0.25
9018.0,0.0
9020.0,0.0
9022.0,0.3
9024.0,1.67
9026.0,2.46
9028.0,2.3
9030.0,1.8
9032.0,1.47
9034.0,0.77
9036.0,0.0
9038.0,0.0
9039.0,0.0
9041.0,0.2
9043.0,1.71
9046.0,2.61
9048.0,2.84
9050.0,2.15
9052.0,1.87
9054.0,1.21
9056.0,0.14
9058.0,0.0
9060.0,0.0
9062.0,0.56
9064.0,2.29
9066.0,2.97
9068.0,2.47
9070.0,2.09
9072.0,1.93
9074.0,1.11
9076.0,0.0
9078.0,0.0
9080.0,0.0
9082.0,0.68
9083.0,1.98
9085.0,2.82
9088.0,2.7
9090.0,2.25
9092.0,1.71
9094.0,0.99
9096.0,0.0
9098.0,0.0
9100.0,0.0
9102.0,0.33
9104.0,2.17
9106.0,2.88
9108.0,2.76
9110.0,2.48
9112.0,2.23
9114.0,1.92
9116.0,1.06
9118.0,0.43
9120.0,0.73
9122.0,1.53
9124.0,2.85
9126.0,3.3
9127.0,3.13
9129.0,2.96
9132.0,2.67
9134.0,1.86
9136.0,0.82
9138.0,0.04
9140.0,0.24
9142.0,1.18
9144.0,2.65
9146.0,3.3
9148.0,3.3
9150.0,3.03
9152.0,2.63
9154.0,1.79
9156.0,0.95
9158.0,0.14
9160.0,0.39
9162.0,1.35
9164.0,3.19
9166.0,3.3
9168.0,3.3
9169.0,3.12
9171.0,2.56
9174.0,2.35
9176.0,1.57
9178.0,0.73
9180.0,0.93
9182.0,1.83
9184.0,3.3
9186.0,3.3
9188.0,3.3
9190.0,3.27
9192.0,2.75
9194.0,1.95
9196.0,1.1
9198.0,0.22
9200.0,0.55
9202.0,1.58
9204.0,2.76
9206.0,3.28
9208.0,3.3
9210.0,2.92
9212.0,2.49
9214.0,1.91
9216.0,1.02
9218.0,0.2
9220.0,0.55
9222.0,1.47
9224.0,2.94
9226.0,3.3
9228.0,3.03
9230.0,2.08
9232.0,1.46
9234.0,0.39
9236.0,0.0
9238.0,0.0
9240.0,0.0
9242.0,0.59
9244.0,2.33
9246.0,3.05
9248.0,2.94
9250.0,2.32
9252.0,1.7
9254.0,1.14
9256.0,0.1
9257.0,0.0
9260.0,0.0
9262.0,0.43
9264.0,1.63
9266.0,2.22
9268.0,2.06
9270.0,1.43
9272.0,0.89
9274.0,0.01
9276.0,0.0
9278.0,0.0
9280.0,0.0
9282.0,0.45
9284.0,2.2
9286.0,3.05
9288.0,3.02
9290.0,2.34
9292.0,1.83
9294.0,0.9
9296.0,0.0
9298.0,0.0
9300.0,0.0
9302.0,0.31
9304.0,1.78
9306.0,2.25
9308.0,2.12
9310.0,1.91
9312.0,1.35
9314.0,0.38
9316.0,0.0
9318.0,0.0
9320.0,0.0
9322.0,0.37
9324.0,1.65
9326.0,2.25
9328.0,2.38
9330.0,2.15
9332.0,1.71
9334.0,1.11
9336.0,0.0
9338.0,0.0
9340.0,0.0
9342.0,0.58
9345.0,1.39
9346.0,1.88
9348.0,1.42
9350.0,1.31
9352.0,0.9
9354.0,0.23
9356.0,0.0
9358.0,0.0
9360.0,0.0
9362.0,0.31
9364.0,1.55
9366.0,2.27
9368.0,2.07
9370.0,1.72
9372.0,1.18
9374.0,0.64
9376.0,0.02
9378.0,0.0
9380.0,0.21
9382.0,1.45
9384.0,3.15
9387.0,3.3
9389.0,3.3
9390.0,3.25
9392.0,3.16
9394.0,2.61
9396.0,1.75
9398.0,1.26
9400.0,1.96
9402.0,3.3
9404.0,3.3
9406.0,3.3
9408.0,3.3
9410.0,3.3
9412.0,3.3
9414.0,3.3
9416.0,2.79
9418.0,1.75
9420.0,2.44
9422.0,3.3
9424.0,3.3
9426.0,3.3
9428.0,3.3
9431.0,3.3
9433.0,3.28
9434.0,2.84
9436.0,1.82
9438.0,1.13
9440.0,1.53
9442.0,3.0
9444.0,3.3
9446.0,3.3
9448.0,3.3
9450.0,3.3
9452.0,3.3
9454.0,3.11
9456.0,2.3
9458.0,1.72
9460.0,1.84
9462.0,2.79
9464.0,3.3
9466.0,3.3
9468.0,3.3
9470.0,3.2
9473.0,2.8
9475.0,1.9
9477.0,1.15
9478.0,0.79
9480.0,1.67
9482.0,3.24
9484.0,3.3
9486.0,3.3
9488.0,3.3
9490.0,3.3
9492.0,3.3
9494.0,3.3
9496.0,3.3
9498.0,3.12
9500.0,3.3
9502.0,3.3
9504.0,3.3
9506.0,3.3
9508.0,3.3
9510.0,3.3
9512.0,3.3
9515.0,3.3
9517.0,3.3
9519.0,3.1
9521.0,2.69
9522.0,3.13
9524.0,3.3
9526.0,3.3
9528.0,3.11
9530.0,2.89
9532.0,2.67
9534.0,1.92
9536.0,0.0
9538.0,0.0
9540.0,0.0
9542.0,0.77
9544.0,2.18
9546.0,2.28
9548.0,2.14
9550.0,1.98
9552.0,0.32
9554.0,0.0
9556.0,0.0
9559.0,0.0
9561.0,0.0
9563.0,0.0
9565.0,0.29
9566.0,0.04
9568.0,0.0
9570.0,0.0
9572.0,0.0
9574.0,0.0
9576.0,0.0
9578.0,0.0
9580.0,0.0
9582.0,0.0
9584.0,0.66
9586.0,0.81
9588.0,0.51
9590.0,0.38
9592.0,0.03
9594.0,0.01
9596.0,0.0
9598.0,0.0
9601.0,0.09
9603.0,1.0
9605.0,2.52
9607.0,2.98
9609.0,3.19
9610.0,2.77
9612.0,1.59
9614.0,0.79
9616.0,0.0
9618.0,0.0
9620.0,0.0
9622.0,0.0
9624.0,0.74
9626.0,1.05
9628.0,0.87
9630.0,0.08
9632.0,0.0
9634.0,0.0
9636.0,0.0
9638.0,0.0
9640.0,0.0
9643.0,0.13
9645.0,1.43
9647.0,1.56
9649.0,1.2
9651.0,0.35
9653.0,0.0
9654.0,0.0
9656.0,0.0
9658.0,0.0
9660.0,0.0
9662.0,0.1
9664.0,0.96
9666.0,0.98
9668.0,0.92
9670.0,0.54
9672.0,0.0
9674.0,0.0
9676.0,0.0
9678.0,0.0
9680.0,0.12
9682.0,1.35
9684.0,3.0
9687.0,3.3
9689.0,3.25
9691.0,3.3
9693.0,3.3
9695.0,3.16
9696.0,2.11
9698.0,2.42
9700.0,3.24
9702.0,3.3
9704.0,3.3
9706.0,3.3
9708.0,2.61
9710.0,0.96
9712.0,0.0
9714.0,0.0
9716.0,0.0
9718.0,0.0
9720.0,0.0
9722.0,0.0
9724.0,0.0
9726.0,0.0
9729.0,0.0
9731.0,0.0
9733.0,0.0
9735.0,0.0
9737.0,0.0
9739.0,0.0
9740.0,0.0
9742.0,0.0
9744.0,0.0
9746.0,0.0
9748.0,0.0
9750.0,0.0
9752.0,0.0
9754.0,0.0
9756.0,0.0
9758.0,0.0
9760.0,0.0
9762.0,0.0
9764.0,0.0
9766.0,0.0
9768.0,0.0
9771.0,0.0
9773.0,0.0
9775.0,0.0
9777.0,0.0
9779.0,0.0
9781.0,0.0
9783.0,0.0
9784.0,0.0
9786.0,0.0
9788.0,0.0
9790.0,0.0
9792.0,0.0
9794.0,0.0
9796.0,0.0
9798.0,0.0
9800.0,0.0
9802.0,0.0
9804.0,1.02
9806.0,1.58
9808.0,1.74
9810.0,1.46
9812.0,0.95
9815.0,0.12
9817.0,0.0
9819.0,0.0
9821.0,0.26
9823.0,1.57
9825.0,3.01
9826.0,3.3
9828.0,3.14
9830.0,2.61
9832.0,2.3
9834.0,1.55
9836.0,0.25
9838.0,0.0
9840.0,0.22
9842.0,1.7
9844.0,2.83
9846.0,2.61
9848.0,2.52
9850.0,1.84
9852.0,0.69
9854.0,0.0
9857.0,0.0
9859.0,0.0
9861.0,0.0
9863.0,0.87
9865.0,2.28
9867.0,2.58
9869.0,2.67
9870.0,2.39
9872.0,1.66
9874.0,0.72
9876.0,0.0
9878.0,0.0
9880.0,0.04
9882.0,1.2
9884.0,2.06
9886.0,2.23
9888.0,1.65
9890.0,0.78
9892.0,0.0
9894.0,0.0
9896.0,0.0
9899.0,0.0
9901.0,0.0
9903.0,0.4
9905.0,1.38
9907.0,1.61
9909.0,1.44
9911.0,1.05
9913.0,0.25
9914.0,0.0
9916.0,0.0
9918.0,0.0
9920.0,0.0
9922.0,0.03
9924.0,0.59
9926.0,0.74
9928.0,0.55
9930.0,0.13
9932.0,0.1
9934.0,0.0
9936.0,0.0
9938.0,0.0
9940.0,0.0
9943.0,0.62
9945.0,1.9
9947.0,1.96
9949.0,1.32
9951.0,0.95
9953.0,0.46
9955.0,0.0
9957.0,0.0
9958.0,0.0
9960.0,0.0
9962.0,0.34
9964.0,1.8
9966.0,2.13
9968.0,2.02
9970.0,1.75
9972.0,0.76
9974.0,0.0
9976.0,0.0
9978.0,0.0
9980.0,0.0
9982.0,0.16
9985.0,1.35
9987.0,1.66
9989.0,1.09
9991.0,0.55
9993.0,0.13
9995.0,0.0
9997.0,0.0
9999.0,0.0
10001.0,0.07
10002.0,1.59
10004.0,2.92
10006.0,3.03
10008.0,2.92
10010.0,2.59
10012.0,1.83
10014.0,0.0
10016.0,0.0
10018.0,0.0
10020.0,0.0
10022.0,0.36
10024.0,1.7
10027.0,2.1
10029.0,1.62
10031.0,1.15
10033.0,0.84
10035.0,0.16
10037.0,0.0
10039.0,0.0
10041.0,0.0
10043.0,0.77
10044.0,2.07
10046.0,2.06
10048.0,1.52
10050.0,1.27
10052.0,0.67
10054.0,0.0
10056.0,0.0
10058.0,0.0
10060.0,0.0
10062.0,1.31
10064.0,2.57
10066.0,2.54
10068.0,1.92
10071.0,1.42
10073.0,0.78
10075.0,0.05
10077.0,0.0
10079.0,0.0
10081.0,0.08
10083.0,1.66
10085.0,2.85
10086.0,3.15
10088.0,2.73
10090.0,2.19
10092.0,1.51
10094.0,0.47
10096.0,0.0
10098.0,0.0
10100.0,0.23
10102.0,1.91
10104.0,2.91
10106.0,2.88
10108.0,2.45
10110.0,1.94
10113.0,0.9
10115.0,0.0
10117.0,0.0
10119.0,0.0
10121.0,0.0
10123.0,0.0
10125.0,0.13
10127.0,0.37
10129.0,0.22
10130.0,0.0
10132.0,0.0
10134.0,0.0
10136.0,0.0
10138.0,0.0
10140.0,0.0
10142.0,0.58
10144.0,1.97
10146.0,2.37
10148.0,2.08
10150.0,1.86
10152.0,1.34
10155.0,0.08
10157.0,0.0
10159.0,0.0
10161.0,0.51
10163.0,2.18
10165.0,3.3
10167.0,3.12
10169.0,2.97
10171.0,2.45
10172.0,1.85
10174.0,0.85
10176.0,0.0
10178.0,0.0
10180.0,0.26
10182.0,1.38
10184.0,2.48
10186.0,3.27
10188.0,3.13
10190.0,2.36
10192.0,1.6
10194.0,0.86
10196.0,0.09
10199.0,0.29
10201.0,1.23
10203.0,2.69
10205.0,3.3
10207.0,3.3
10209.0,3.24
10211.0,3.19
10213.0,2.74
10214.0,1.64
10216.0,0.83
10218.0,0.97
10220.0,1.99
10222.0,3.3
10224.0,3.3
10226.0,3.3
10228.0,3.2
10230.0,2.55
10232.0,1.87
10234.0,1.05
10236.0,0.18
10238.0,0.49
10241.0,1.6
10243.0,3.3
10245.0,3.3
10247.0,3.3
10249.0,3.3
10251.0,3.3
10253.0,3.3
10255.0,3.3
10257.0,2.55
10258.0,2.75
10260.0,3.3
10262.0,3.3
10264.0,3.3
10266.0,3.3
10268.0,3.3
10270.0,3.3
10272.0,3.3
10274.0,3.3
10276.0,3.3
10278.0,3.3
10280.0,3.3
10283.0,3.3
10285.0,3.3
10287.0,3.3
10289.0,3.3
10291.0,3.3
10293.0,3.3
10295.0,3.3
10297.0,3.3
10299.0,3.3
10300.0,3.3
10302.0,3.3
10304.0,3.3
10306.0,3.3
10308.0,3.3
10310.0,3.3
10312.0,3.3
10314.0,3.3
10316.0,3.3
10318.0,3.3
10320.0,3.3
10322.0,3.3
10324.0,3.3
10327.0,3.3
10329.0,3.3
10331.0,3.3
10333.0,3.3
10335.0,3.3
10337.0,3.3
10339.0,3.3
10341.0,3.3
10342.0,3.3
10344.0,3.3
10346.0,3.3
10348.0,3.3
10350.0,3.3
10352.0,3.3
10354.0,3.3
10356.0,3.1
10358.0,2.97
10360.0,3.3
10362.0,3.3
10364.0,3.3
10366.0,3.3
10369.0,3.3
10371.0,3.3
10373.0,3.3
10375.0,2.61
10377.0,1.34
10379.0,1.81
10381.0,2.57
10383.0,3.3
10385.0,3.3
10386.0,3.3
10388.0,3.3
10390.0,3.3
10392.0,3.01
10394.0,1.88
10396.0,0.89
10398.0,0.17
10400.0,0.64
10402.0,1.87
10404.0,2.55
10406.0,2.53
10408.0,1.85
10411.0,1.16
10413.0,0.45
10415.0,0.0
10417.0,0.0
10419.0,0.0
10421.0,0.0
10423.0,1.35
10425.0,2.38
10427.0,2.38
10428.0,2.27
10430.0,2.02
10432.0,1.18
10434.0,0.52
10436.0,0.0
10438.0,0.73
10440.0,1.66
10442.0,2.92
10444.0,3.3
10446.0,3.3
10448.0,3.11
10450.0,2.92
10452.0,2.23
10455.0,1.06
10457.0,0.0
10459.0,0.0
10461.0,0.0
10463.0,0.0
10465.0,0.0
10467.0,0.0
10469.0,0.0
10470.0,0.0
10472.0,0.0
10474.0,0.0
10476.0,0.0
10478.0,0.0
10480.0,0.0
10482.0,0.0
10484.0,0.0
10486.0,0.0
10488.0,0.0
10490.0,0.0
10492.0,0.0
10494.0,0.0
10497.0,0.0
10499.0,0.0
10501.0,0.0
10503.0,0.0
10505.0,0.0
10507.0,0.0
10509.0,0.0
10511.0,0.0
10513.0,0.0
10514.0,0.0
10516.0,0.0
10518.0,0.0
10520.0,0.0
10522.0,0.14
10524.0,1.04
10526.0,1.17
10528.0,0.67
10530.0,0.0
10532.0,0.0
10534.0,0.0
10536.0,0.0
10539.0,0.0
10541.0,0.0
10543.0,0.0
10545.0,0.22
10547.0,0.0
10549.0,0.0
10551.0,0.0
10553.0,0.0
10555.0,0.0
10556.0,0.0
10558.0,0.0
10560.0,0.0
10562.0,0.75
10564.0,2.21
10566.0,3.3
10568.0,3.3
10570.0,3.3
10572.0,3.3
10574.0,3.3
10576.0,3.3
10578.0,3.3
10580.0,3.3
10583.0,3.3
10585.0,3.3
10587.0,3.3
10589.0,3.3
10591.0,3.3
10593.0,3.3
10595.0,3.3
10597.0,3.3
10599.0,3.3
10600.0,3.3
10602.0,3.3
10604.0,3.3
10606.0,3.3
10608.0,3.3
10610.0,3.3
10612.0,3.17
10614.0,1.88
10616.0,0.67
10618.0,1.09
10620.0,2.08
10622.0,3.3
10625.0,3.3
10627.0,3.3
10629.0,2.76
10631.0,3.06
10633.0,2.16
10635.0,0.8
10637.0,0.16
10639.0,0.03
10641.0,0.81
10642.0,2.24
10644.0,2.95
10646.0,3.08
10648.0,2.65
10650.0,1.99
10652.0,1.12
10654.0,0.0
10656.0,0.0
10658.0,0.0
10660.0,0.77
10662.0,2.52
10664.0,3.16
10667.0,2.69
10669.0,2.16
10671.0,1.48
10673.0,0.68
10675.0,0.0
10677.0,0.0
10679.0,0.0
10681.0,0.05
10683.0,1.24
10684.0,1.92
10686.0,1.74
10688.0,1.13
10690.0,0.55
10692.0,0.0
10694.0,0.0
10696.0,0.0
10698.0,0.0
10700.0,0.15
10702.0,1.07
10704.0,1.63
10706.0,1.41
10708.0,0.96
10711.0,0.31
10713.0,0.0
10715.0,0.0
10717.0,0.0
10719.0,0.0
10721.0,0.0
10723.0,0.33
10725.0,0.83
10727.0,0.5
10728.0,0.0
10730.0,0.0
10732.0,0.0
10734.0,0.0
10736.0,0.0
10738.0,0.0
10740.0,0.0
10742.0,0.0
10744.0,0.0
10746.0,0.0
10748.0,0.0
10750.0,0.0
10753.0,0.0
10755.0,0.0
10757.0,0.0
10759.0,0.0
10761.0,0.0
10763.0,0.86
10765.0,1.47
10767.0,1.26
10769.0,0.68
10770.0,0.06
10772.0,0.0
10774.0,0.0
10776.0,0.0
10778.0,0.0
10780.0,0.0
10782.0,0.99
10784.0,1.73
10786.0,2.22
10788.0,1.43
10790.0,0.46
10792.0,0.0
10795.0,0.0
10797.0,0.0
10799.0,0.0
10801.0,0.35
10803.0,1.71
10805.0,2.21
10807.0,2.13
10809.0,1.36
10811.0,0.98
10812.0,0.66
10814.0,0.0
10816.0,0.0
10818.0,0.09
10820.0,1.2
10822.0,2.69
10824.0,3.19
10826.0,3.21
10828.0,2.85
10830.0,2.3
10832.0,1.26
10834.0,0.0
10836.0,0.0
10839.0,0.0
10841.0,0.0
10843.0,0.73
10845.0,1.0
10847.0,0.45
10849.0,0.37
10851.0,0.0
10853.0,0.0
10855.0,0.0
10856.0,0.0
10858.0,0.0
10860.0,0.0
10862.0,0.59
10864.0,1.18
10866.0,0.76
10868.0,0.24
10870.0,0.35
10872.0,0.0
10874.0,0.0
10876.0,0.0
10878.0,0.0
10881.0,0.0
10883.0,1.1
10885.0,1.75
10887.0,1.43
10889.0,0.41
10891.0,0.0
10893.0,0.0
10895.0,0.0
10897.0,0.0
10898.0,0.0
10900.0,0.0
10902.0,1.08
10904.0,1.7
10906.0,1.58
10908.0,1.22
10910.0,0.63
10912.0,0.0
10914.0,0.0
10916.0,0.0
10918.0,0.0
10920.0,0.62
10923.0,2.38
10925.0,2.89
10927.0,3.3
10929.0,3.3
10931.0,3.3
10933.0,2.83
10935.0,1.9
10937.0,0.98
10939.0,1.3
10940.0,2.74
10942.0,3.3
10944.0,3.3
10946.0,3.3
10948.0,3.3
10950.0,3.3
10952.0,2.8
10954.0,1.36
10956.0,1.65
10958.0,2.65
10960.0,3.3
10962.0,3.3
10964.0,3.3
10967.0,3.3
10969.0,3.3
10971.0,3.3
10973.0,2.9
10975.0,1.83
10977.0,0.75
10979.0,1.5
10981.0,3.02
10983.0,3.3
10984.0,3.3
10986.0,3.3
10988.0,3.3
10990.0,3.1
10992.0,2.25
10994.0,1.04
10996.0,0.0
10998.0,0.65
11000.0,2.24
11002.0,3.3
11004.0,3.3
11006.0,3.3
11009.0,3.21
11011.0,2.53
11013.0,1.81
11015.0,0.81
11017.0,0.0
11019.0,0.12
11021.0,1.03
11023.0,2.78
11025.0,3.3
11026.0,3.3
11028.0,2.7
11030.0,2.21
11032.0,1.46
11034.0,0.56
11036.0,0.71
11038.0,1.75
11040.0,3.26
11042.0,3.3
11044.0,3.3
11046.0,3.3
11048.0,3.3
11051.0,3.3
11053.0,2.69
11055.0,1.51
11057.0,0.99
11059.0,1.25
11061.0,2.16
11063.0,3.3
11065.0,3.3
11067.0,3.3
11068.0,3.17
11070.0,2.6
11072.0,1.82
11074.0,0.84
11076.0,0.41
11078.0,0.55
11080.0,1.54
11082.0,2.84
11084.0,3.23
11086.0,2.75
11088.0,2.19
11090.0,1.72
11092.0,1.13
11095.0,0.12
11097.0,0.0
11099.0,0.18
11101.0,1.07
11103.0,2.63
11105.0,3.0
11107.0,2.85
11109.0,2.51
11111.0,2.01
11112.0,1.39
11114.0,0.34
11116.0,0.0
11118.0,0.0
11120.0,0.24
11122.0,1.55
11124.0,2.11
11126.0,1.89
11128.0,1.53
11130.0,1.21
11132.0,0.3
11134.0,0.0
11137.0,0.0
11139.0,0.23
11141.0,0.95
11143.0,2.37
11145.0,2.68
11147.0,2.41
11149.0,2.1
11151.0,1.67
11153.0,0.85
11154.0,0.0
11156.0,0.0
11158.0,0.0
11160.0,0.69
11162.0,2.1
11164.0,2.51
11166.0,2.42
11168.0,1.84
11170.0,1.24
11172.0,0.43
11174.0,0.0
11176.0,0.0
11179.0,0.0
11181.0,0.62
11183.0,2.11
11185.0,2.56
11187.0,2.31
11189.0,1.56
11191.0,0.91
11193.0,0.28
11195.0,0.0
11196.0,0.0
11198.0,0.12
11200.0,1.05
11202.0,1.96
11204.0,2.31
11206.0,2.26
11208.0,1.76
11210.0,1.85
11212.0,1.31
11214.0,0.42
11216.0,0.21
11218.0,0.7
11220.0,1.57
11223.0,2.42
11225.0,2.55
11227.0,2.68
11229.0,2.79
11231.0,2.86
11233.0,2.36
11235.0,1.42
11237.0,1.04
11239.0,1.42
11240.0,2.26
11242.0,3.3
11244.0,3.3
11246.0,3.3
11248.0,3.3
11250.0,2.95
11252.0,2.36
11254.0,1.28
11256.0,1.09
11258.0,1.6
11260.0,2.69
11262.0,3.3
11265.0,3.3
11267.0,3.3
11269.0,3.3
11271.0,3.22
11273.0,2.53
11275.0,1.28
11277.0,0.41
11279.0,0.65
11281.0,1.39
11282.0,2.53
11284.0,2.6
11286.0,2.37
11288.0,1.48
11290.0,0.39
11292.0,0.0
11294.0,0.0
11296.0,0.0
11298.0,0.0
11300.0,0.21
11302.0,1.26
11304.0,1.26
11307.0,1.04
11309.0,0.96
11311.0,0.5
11313.0,0.0
11315.0,0.0
11317.0,0.0
11319.0,0.0
11321.0,0.99
11323.0,2.16
11325.0,2.46
11326.0,1.91
11328.0,1.56
11330.0,1.38
11332.0,0.96
11334.0,0.33
11336.0,0.0
11338.0,0.15
11340.0,1.24
11342.0,2.64
11344.0,2.83
11346.0,3.3
11348.0,3.3
11351.0,3.3
11353.0,3.3
11355.0,3.3
11357.0,3.3
11359.0,3.3
11361.0,3.3
11363.0,3.3
11365.0,3.3
11367.0,3.3
11368.0,3.3
11370.0,3.3
11372.0,3.3
11374.0,2.8
11376.0,2.36
11378.0,2.62
11380.0,3.3
11382.0,3.3
11384.0,3.3
11386.0,3.3
11388.0,3.3
11390.0,3.04
11393.0,2.49
11395.0,1.75
11397.0,1.4
11399.0,1.77
11401.0,3.14
11403.0,3.3
11405.0,3.3
11407.0,3.3
11409.0,3.29
11410.0,2.81
11412.0,2.06
11414.0,1.11
11416.0,0.64
11418.0,0.94
11420.0,1.88
11422.0,2.88
11424.0,2.88
11426.0,2.44
11428.0,1.85
11430.0,1.22
11432.0,0.76
11435.0,0.0
11437.0,0.0
11439.0,0.0
11441.0,1.16
11443.0,2.19
11445.0,2.26
11447.0,2.09
11449.0,1.72
11451.0,0.98
11453.0,0.22
11454.0,0.0
11456.0,0.0
11458.0,0.0
11460.0,0.85
11462.0,2.03
11464.0,2.27
11466.0,2.11
11468.0,1.68
11470.0,1.12
11472.0,0.4
11474.0,0.0
11476.0,0.0
11479.0,0.2
11481.0,1.48
11483.0,2.48
11485.0,2.55
11487.0,2.03
11489.0,1.48
11491.0,1.02
11493.0,0.3
11495.0,0.0
11496.0,0.0
11498.0,0.13
11500.0,1.21
11502.0,2.29
11504.0,2.37
11506.0,2.01
11508.0,1.67
11510.0,0.8
11512.0,0.14
11514.0,0.0
11516.0,0.0
11518.0,0.0
11521.0,0.84
11523.0,2.05
11525.0,2.25
11527.0,1.89
11529.0,1.56
11531.0,1.4
11533.0,0.55
11535.0,0.0
11537.0,0.0
11538.0,0.15
11540.0,1.41
11542.0,2.69
11544.0,2.62
11546.0,2.25
11548.0,1.77
11550.0,1.08
11552.0,0.23
11554.0,0.0
11556.0,0.0
11558.0,0.04
11560.0,0.95
11563.0,2.27
11565.0,2.76
11567.0,2.33
11569.0,2.04
11571.0,1.49
11573.0,0.88
11575.0,0.0
11577.0,0.0
11579.0,0.33
11581.0,1.42
11582.0,2.39
11584.0,2.72
11586.0,2.27
11588.0,1.79
11590.0,1.09
11592.0,0.44
11594.0,0.0
11596.0,0.0
11598.0,0.26
11600.0,1.44
11602.0,2.35
11604.0,2.51
11607.0,2.58
11609.0,1.96
11611.0,1.4
11613.0,0.81
11615.0,0.5
11617.0,0.99
11619.0,1.75
11621.0,2.82
11623.0,3.3
11624.0,3.3
11626.0,3.3
11628.0,3.3
11630.0,3.18
11632.0,2.51
11634.0,1.68
11636.0,1.43
11638.0,1.81
11640.0,2.76
11642.0,3.3
11644.0,3.3
11646.0,3.3
11649.0,3.25
11651.0,2.95
11653.0,2.09
11655.0,0.96
11657.0,0.29
11659.0,0.08
11661.0,0.58
11663.0,1.66
11665.0,1.75
11666.0,1.04
11668.0,0.31
11670.0,0.0
11672.0,0.0
11674.0,0.0
11676.0,0.0
11678.0,0.37
11680.0,1.69
11682.0,2.73
11684.0,2.97
11686.0,2.89
11688.0,2.18
11691.0,1.92
11693.0,0.0
11695.0,0.0
11697.0,0.0
11699.0,0.0
11701.0,0.0
11703.0,0.75
11705.0,0.8
11707.0,0.95
11709.0,1.4
11710.0,1.4
11712.0,0.09
11714.0,0.01
11716.0,0.0
11718.0,0.0
11720.0,0.76
11722.0,2.41
11724.0,2.58
11726.0,2.23
11728.0,2.29
11730.0,2.21
11732.0,2.3
11735.0,1.14
11737.0,1.23
11739.0,2.83
11741.0,3.3
11743.0,3.3
11745.0,3.3
11747.0,3.28
11749.0,3.3
11751.0,3.3
11752.0,3.3
11754.0,3.3
11756.0,3.3
11758.0,3.3
11760.0,3.3
11762.0,3.3
11764.0,3.3
11766.0,3.3
11768.0,3.3
11770.0,3.3
11772.0,3.3
11774.0,3.3
11777.0,3.3
11779.0,3.3
11781.0,3.3
11783.0,3.3
11785.0,3.3
11787.0,3.3
11789.0,3.3
11791.0,3.3
11793.0,3.3
11794.0,3.3
11796.0,3.3
11798.0,3.3
11800.0,3.3
11802.0,3.3
11804.0,3.3
11806.0,3.3
11808.0,3.3
11810.0,3.3
11812.0,3.3
11814.0,2.7
11816.0,3.3
11819.0,3.3
11821.0,2.95
11823.0,2.5
11825.0,0.95
11827.0,0.24
11829.0,1.24
11831.0,3.3
11833.0,3.3
11835.0,0.0
11837.0,0.0
11838.0,0.0
11840.0,0.0
11842.0,0.0
11844.0,0.0
11846.0,0.0
11848.0,0.0
11850.0,0.0
11852.0,0.0
11854.0,0.0
11856.0,0.0
11858.0,0.0
11860.0,0.0
11863.0,3.3
11865.0,2.62
11867.0,2.41
11869.0,2.06
11871.0,2.24
11873.0,1.7
11875.0,0.86
11877.0,1.02
11879.0,1.46
11880.0,3.3
11882.0,3.3
11884.0,3.3
11886.0,3.3
11888.0,3.3
11890.0,3.3
11892.0,3.3
11894.0,3.3
11896.0,3.3
11898.0,3.3
11900.0,3.3
11902.0,3.3
11905.0,3.3
11907.0,3.3
11909.0,3.3
11911.0,3.3
11913.0,3.3
11915.0,3.3
11917.0,3.3
11919.0,3.3
11921.0,3.3
11922.0,3.3
11924.0,3.3
11926.0,3.3
11928.0,3.3
11930.0,3.3
11932.0,3.3
11934.0,3.3
11936.0,3.04
11938.0,2.75
11940.0,3.07
11942.0,3.3
11944.0,2.51
11947.0,0.78
11949.0,0.0
11951.0,0.0
11953.0,0.0
11955.0,0.0
11957.0,0.0
11959.0,0.0
11961.0,0.0
11963.0,0.0
11965.0,0.0
11966.0,0.0
11968.0,0.0
11970.0,0.0
11972.0,0.0
11974.0,0.0
11976.0,0.0
11978.0,0.0
11980.0,0.0
11982.0,0.0
11984.0,0.0
11986.0,0.0
11988.0,0.0
11991.0,0.0
11993.0,0.0
11995.0,0.0
11997.0,0.0
11999.0,0.0
12001.0,0.0
12003.0,0.0
12005.0,0.0
12007.0,0.0
12008.0,0.0
12010.0,0.0
12012.0,0.0
12014.0,0.0
12016.0,0.0
12018.0,0.0
12020.0,0.0
12022.0,0.0
12024.0,0.0
12026.0,0.0
12028.0,0.0
12030.0,0.0
12033.0,0.0
12035.0,0.0
12037.0,0.23
12039.0,2.65
12041.0,3.3
12043.0,3.3
12045.0,3.3
12047.0,3.3
12049.0,3.19
12050.0,3.04
12052.0,1.37
12054.0,0.66
12056.0,0.48
12058.0,1.45
12060.0,2.71
12062.0,3.3
12064.0,3.16
12066.0,0.0
12068.0,0.0
12070.0,0.0
12072.0,0.0
12075.0,0.0
12077.0,0.0
12079.0,0.0
12081.0,0.0
12083.0,0.0
12085.0,0.0
12087.0,0.0
12089.0,0.0
12091.0,0.0
12093.0,0.0
12094.0,0.0
12096.0,0.0
12098.0,0.0
12100.0,0.0
12102.0,0.0
12104.0,0.0
12106.0,0.0
12108.0,0.0
12110.0,0.0
12112.0,0.0
12114.0,0.0
12116.0,0.0
12119.0,0.0
12121.0,0.0
12123.0,0.01
12125.0,0.16
12127.0,0.72
12129.0,1.03
12131.0,0.0
12133.0,0.0
12135.0,0.0
12136.0,0.0
12138.0,0.19
12140.0,1.65
12142.0,2.42
12144.0,2.33
12146.0,1.11
12148.0,1.32
12150.0,1.75
12152.0,1.26
12154.0,0.41
12156.0,0.45
12158.0,0.83
12161.0,2.0
12163.0,2.55
12165.0,2.61
12167.0,2.75
12169.0,3.14
12171.0,3.1
12173.0,2.33
12175.0,1.24
12177.0,1.05
12179.0,1.9
12180.0,3.09
12182.0,3.3
12184.0,3.3
12186.0,3.3
12188.0,2.89
12190.0,2.37
12192.0,1.7
12194.0,1.54
12196.0,2.03
12198.0,2.86
12200.0,3.3
12203.0,3.3
12205.0,3.3
12207.0,3.3
12209.0,3.3
12211.0,3.3
12213.0,3.3
12215.0,3.3
12217.0,3.3
12219.0,3.3
12221.0,3.3
12222.0,3.3
12224.0,3.3
12226.0,3.3
12228.0,3.3
12230.0,3.3
12232.0,3.3
12234.0,3.06
12236.0,3.19
12238.0,3.3
12240.0,3.3
12242.0,3.3
12244.0,3.3
12247.0,3.3
12249.0,3.3
12251.0,3.3
12253.0,3.3
12255.0,3.3
12257.0,3.3
12259.0,3.3
12261.0,3.3
12263.0,3.3
12264.0,3.3
12266.0,3.3
12268.0,3.3
12270.0,3.3
12272.0,3.3
12274.0,3.3
12276.0,3.3
12278.0,3.3
12280.0,3.3
12282.0,3.3
12284.0,3.3
12286.0,3.3
12289.0,3.0
12291.0,2.05
12293.0,1.1
12295.0,0.29
12297.0,0.27
12299.0,0.0
12301.0,0.0
12303.0,0.0
12305.0,0.0
12307.0,0.0
12308.0,0.0
12310.0,0.0
12312.0,0.0
12314.0,0.0
12316.0,0.0
12318.0,0.0
12320.0,0.0
12322.0,0.0
12324.0,0.0
12326.0,0.23
12328.0,1.25
12331.0,3.27
12333.0,3.3
12335.0,3.3
12337.0,3.3
12339.0,3.3
12341.0,3.3
12343.0,3.3
12345.0,3.3
12347.0,3.3
12349.0,3.3
12350.0,2.42
12352.0,1.36
12354.0,0.71
12356.0,0.0
12358.0,0.0
12360.0,0.0
12362.0,0.0
12364.0,0.0
12366.0,0.0
12368.0,0.0
12370.0,0.0
12372.0,0.0
12375.0,0.0
12377.0,0.0
12379.0,0.0
12381.0,0.0
12383.0,0.0
12385.0,0.0
12387.0,0.0
12389.0,0.0
12391.0,0.0
12392.0,0.0
12394.0,0.0
12396.0,0.0
12398.0,0.0
12400.0,0.0
12402.0,0.0
12404.0,0.0
12406.0,0.0
12408.0,0.0
12410.0,0.0
12412.0,0.0
12414.0,0.0
12417.0,0.0
12419.0,0.0
12421.0,0.0
12423.0,0.0
12425.0,0.0
12427.0,0.0
12429.0,0.0
12431.0,0.0
12433.0,0.0
12435.0,0.0
12436.0,0.0
12438.0,0.0
12440.0,0.0
12442.0,0.0
12444.0,0.0
12446.0,0.0
12448.0,0.0
12450.0,0.0
12452.0,0.0
12454.0,0.0
12456.0,0.0
12459.0,0.0
12461.0,1.04
12463.0,2.13
12465.0,2.78
12467.0,2.98
12469.0,3.3
12471.0,3.3
12473.0,3.18
12475.0,2.37
12477.0,2.01
12478.0,2.67
12480.0,3.3
12482.0,3.3
12484.0,3.3
12486.0,3.3
12488.0,3.3
12490.0,3.3
12492.0,2.93
12494.0,2.02
12496.0,1.45
12498.0,2.16
12500.0,3.05
12503.0,3.3
12505.0,2.85
12507.0,2.25
12509.0,1.64
12511.0,0.78
12513.0,0.21
12515.0,0.0
12517.0,0.48
12519.0,1.26
12520.0,2.66
12522.0,3.3
12524.0,2.52
12526.0,2.16
12528.0,2.12
12530.0,2.02
12532.0,1.17
12534.0,0.44
12536.0,0.0
12538.0,0.32
12540.0,0.86
12542.0,0.79
12545.0,0.15
12547.0,0.07
12549.0,0.0
12551.0,0.0
12553.0,0.0
12555.0,0.0
12557.0,0.0
12559.0,0.0
12561.0,0.1
12563.0,0.17
12564.0,0.0
12566.0,0.0
12568.0,0.0
12570.0,0.0
12572.0,0.0
12574.0,0.0
12576.0,0.0
12578.0,0.0
12580.0,0.95
12582.0,1.81
12584.0,1.78
12587.0,1.19
12589.0,0.81
12591.0,0.35
12593.0,0.0
12595.0,0.0
12597.0,0.0
12599.0,0.11
12601.0,0.78
12603.0,0.91
12605.0,0.78
12606.0,0.43
12608.0,0.0
12610.0,0.0
12612.0,0.0
12614.0,0.0
12616.0,0.0
12618.0,0.04
12620.0,0.92
12622.0,1.45
12624.0,1.39
12626.0,1.14
12628.0,1.53
12631.0,1.26
12633.0,0.64
12635.0,0.07
12637.0,0.0
12639.0,0.42
12641.0,1.24
12643.0,1.43
12645.0,1.12
12647.0,0.89
12648.0,0.74
12650.0,0.34
12652.0,0.0
12654.0,0.0
12656.0,0.0
12658.0,0.48
12660.0,1.56
12662.0,2.0
12664.0,2.07
12666.0,1.67
12668.0,1.44
12670.0,1.05
12673.0,0.38
12675.0,0.25
12677.0,0.79
12679.0,1.61
12681.0,2.7
12683.0,3.26
12685.0,3.26
12687.0,2.64
12689.0,2.22
12691.0,1.86
12692.0,0.9
12694.0,0.25
12696.0,0.62
12698.0,1.57
12700.0,2.39
12702.0,2.59
12704.0,2.66
12706.0,2.43
12708.0,2.12
12710.0,1.55
12712.0,0.88
12715.0,0.8
12717.0,1.15
12719.0,2.13
12721.0,3.3
12723.0,3.3
12725.0,3.3
12727.0,3.3
12729.0,3.22
12731.0,1.33
12733.0,0.0
12734.0,0.0
12736.0,0.0
12738.0,0.0
12740.0,0.0
12742.0,0.0
12744.0,0.0
12746.0,0.0
12748.0,0.0
12750.0,0.0
12752.0,0.0
12754.0,0.0
12756.0,0.0
12759.0,0.0
12761.0,0.0
12763.0,0.07
12765.0,0.06
12767.0,0.0
12769.0,0.0
12771.0,0.0
12773.0,0.0
12775.0,0.0
12776.0,0.0
12778.0,0.03
12780.0,1.01
12782.0,1.38
12784.0,1.46
12786.0,1.07
12788.0,0.74
12790.0,0.43
12792.0,0.0
12794.0,0.0
12796.0,0.0
12798.0,0.7
12801.0,1.87
12803.0,2.15
12805.0,2.07
12807.0,1.76
12809.0,1.4
12811.0,0.55
12813.0,0.0
12815.0,0.0
12817.0,0.0
12819.0,0.27
12820.0,1.25
12822.0,1.45
12824.0,1.56
12826.0,1.66
12828.0,1.46
12830.0,1.32
12832.0,0.92
12834.0,0.8
12836.0,1.39
12838.0,2.35
12840.0,3.28
12843.0,3.3
12845.0,3.14
12847.0,2.57
12849.0,1.79
12851.0,1.59
12853.0,0.95
12855.0,0.4
12857.0,0.95
12859.0,1.78
12861.0,2.86
12862.0,3.03
12864.0,2.22
12866.0,1.56
12868.0,1.19
12870.0,0.58
12872.0,0.0
12874.0,0.0
12876.0,0.25
12878.0,1.19
12880.0,2.32
12882.0,2.3
12884.0,1.92
12887.0,1.77
12889.0,1.63
12891.0,1.19
12893.0,0.53
12895.0,0.4
12897.0,1.01
12899.0,1.92
12901.0,2.97
12903.0,3.22
12904.0,3.3
12906.0,2.99
12908.0,2.59
12910.0,1.77
12912.0,0.55
12914.0,0.16
12916.0,0.45
12918.0,1.39
12920.0,2.39
12922.0,2.55
12924.0,2.65
12926.0,2.07
12929.0,1.64
12931.0,1.2
12933.0,0.1
12935.0,0.0
12937.0,0.2
12939.0,0.91
12941.0,1.91
12943.0,2.18
12945.0,1.98
12947.0,1.84
12948.0,1.47
12950.0,1.07
12952.0,0.23
12954.0,0.0
12956.0,0.43
12958.0,1.36
12960.0,2.2
12962.0,2.44
12964.0,2.24
12966.0,1.8
12968.0,1.54
12971.0,1.19
12973.0,0.77
12975.0,0.61
12977.0,0.03
12979.0,0.19
12981.0,1.43
12983.0,1.59
12985.0,1.25
12987.0,1.05
12989.0,0.68
12990.0,0.2
12992.0,0.0
12994.0,0.0
12996.0,0.0
12998.0,0.54
13000.0,1.54
13002.0,1.88
13004.0,1.78
13006.0,1.75
13008.0,1.56
13010.0,1.12
13012.0,0.2
13015.0,0.0
13017.0,0.2
13019.0,0.85
13021.0,1.66
13023.0,1.75
13025.0,1.42
13027.0,0.96
13029.0,0.68
13031.0,0.26
13032.0,0.0
13034.0,0.0
13036.0,0.0
13038.0,0.0
13040.0,0.49
13042.0,0.51
13044.0,0.14
13046.0,0.0
13048.0,0.0
13050.0,0.0
13052.0,0.0
13054.0,0.0
13057.0,0.0
13059.0,0.19
13061.0,1.11
13063.0,1.49
13065.0,1.43
13067.0,1.29
13069.0,0.82
13071.0,0.17
13073.0,0.0
13075.0,0.0
13076.0,0.07
13078.0,0.86
13080.0,1.71
13082.0,1.84
13084.0,1.52
13086.0,0.93
13088.0,0.68
13090.0,0.17
13092.0,0.0
13094.0,0.0
13096.0,0.05
13099.0,0.97
13101.0,2.08
13103.0,2.17
13105.0,1.88
13107.0,1.76
13109.0,1.25
13111.0,1.0
13113.0,0.24
13115.0,0.08
13117.0,0.53
13118.0,1.34
13120.0,2.35
13122.0,2.49
13124.0,2.42
13126.0,2.05
13128.0,1.43
13130.0,0.95
13132.0,0.67
13134.0,1.1
13136.0,1.48
13138.0,2.2
13140.0,3.28
13143.0,3.27
13145.0,2.62
13147.0,2.55
13149.0,1.93
13151.0,1.13
13153.0,0.48
13155.0,0.35
13157.0,0.65
13159.0,1.85
13161.0,2.6
13162.0,2.58
13164.0,2.51
13166.0,2.28
13168.0,1.92
13170.0,1.41
13172.0,0.94
13174.0,1.18
13176.0,2.35
13178.0,3.3
13180.0,3.3
13182.0,3.3
13185.0,3.3
13187.0,3.3
13189.0,3.3
13191.0,3.3
13193.0,3.03
13195.0,3.29
13197.0,3.3
13199.0,3.3
13201.0,3.3
13203.0,3.3
13204.0,3.3
13206.0,3.3
13208.0,3.3
13210.0,3.3
13212.0,3.3
13214.0,3.3
13216.0,3.3
13218.0,3.3
13220.0,3.3
13222.0,3.3
13224.0,3.3
13227.0,3.3
13229.0,3.3
13231.0,3.3
13233.0,3.3
13235.0,3.3
13237.0,3.3
13239.0,3.3
13241.0,3.3
13243.0,3.3
13245.0,3.3
13246.0,3.3
13248.0,3.3
13250.0,3.3
13252.0,3.3
13254.0,3.3
13256.0,3.3
13258.0,3.3
13260.0,3.3
13262.0,3.3
13264.0,3.3
13266.0,3.3
13268.0,3.3
13271.0,3.3
13273.0,3.3
13275.0,3.3
13277.0,3.3
13279.0,3.3
13281.0,3.3
13283.0,3.3
13285.0,3.3
13287.0,3.3
13289.0,3.3
13290.0,2.99
13292.0,2.48
13294.0,2.64
13296.0,3.3
13298.0,3.3
13300.0,3.3
13302.0,3.3
13304.0,3.3
13306.0,3.3
13308.0,3.3
13310.0,3.14
13313.0,2.65
13315.0,2.3
13317.0,2.7
13319.0,3.3
13321.0,3.3
13323.0,3.3
13325.0,3.3
13327.0,3.3
13329.0,3.3
13331.0,3.16
13332.0,2.61
13334.0,2.36
13336.0,2.82
13338.0,3.3
13340.0,3.3
13342.0,3.3
13344.0,3.3
13346.0,3.1
13348.0,2.67
13350.0,2.39
13352.0,1.44
13355.0,1.12
13357.0,1.53
13359.0,2.25
13361.0,2.97
13363.0,2.85
13365.0,2.33
13367.0,1.96
13369.0,1.76
13371.0,1.11
13373.0,0.0
13374.0,0.0
13376.0,0.57
13378.0,1.59
13380.0,2.64
13382.0,2.6
13384.0,2.12
13386.0,2.01
13388.0,1.48
13390.0,0.58
13392.0,0.0
13394.0,0.0
13396.0,0.02
13399.0,1.0
13401.0,2.01
13403.0,2.01
13405.0,1.58
13407.0,1.42
13409.0,1.19
13411.0,0.66
13413.0,0.0
13415.0,0.0
13417.0,0.0
13418.0,0.0
13420.0,0.35
13422.0,0.61
13424.0,0.52
13426.0,0.05
13428.0,0.0
13430.0,0.0
13432.0,0.0
13434.0,0.0
13436.0,0.0
13438.0,0.13
13441.0,0.75
13443.0,0.78
13445.0,0.43
13447.0,0.0
13449.0,0.0
13451.0,0.0
13453.0,0.0
13455.0,0.0
13457.0,0.0
13459.0,0.61
13460.0,1.93
13462.0,3.3
13464.0,3.3
13466.0,3.3
13468.0,3.3
13470.0,2.89
13472.0,2.06
13474.0,1.8
13476.0,2.24
13478.0,3.3
13480.0,3.3
13483.0,3.25
13485.0,2.86
13487.0,2.15
13489.0,1.26
13491.0,0.71
13493.0,0.06
13495.0,0.0
13497.0,0.33
13499.0,1.15
13501.0,2.25
13502.0,2.64
13504.0,2.56
13506.0,2.17
13508.0,1.87
13510.0,1.07
13512.0,0.31
13514.0,0.0
13516.0,0.34
13518.0,1.41
13520.0,2.12
13522.0,1.82
13524.0,1.64
13527.0,1.51
13529.0,1.06
13531.0,0.09
13533.0,0.0
13535.0,0.0
13537.0,0.0
13539.0,0.02
13541.0,0.37
13543.0,0.27
13545.0,0.1
13546.0,0.0
13548.0,0.0
13550.0,0.0
13552.0,0.0
13554.0,0.0
13556.0,0.0
13558.0,0.0
13560.0,0.4
13562.0,0.61
13564.0,0.51
13566.0,0.02
13569.0,0.0
13571.0,0.0
13573.0,0.0
13575.0,0.0
13577.0,0.0
13579.0,0.01
13581.0,0.4
13583.0,0.04
13585.0,0.0
13587.0,0.0
13588.0,0.0
13590.0,0.0
13592.0,0.27
13594.0,3.3
13596.0,3.3
13598.0,3.3
13600.0,3.3
13602.0,1.97
13604.0,0.93
13606.0,0.08
13608.0,0.0
13611.0,0.0
13613.0,0.0
13615.0,0.0
13617.0,0.0
13619.0,0.0
13621.0,0.0
13623.0,0.0
13625.0,0.0
13627.0,0.0
13629.0,0.0
13630.0,0.0
13632.0,0.0
13634.0,0.0
13636.0,0.0
13638.0,0.0
13640.0,0.0
13642.0,0.0
13644.0,0.0
13646.0,0.0
13648.0,0.0
13650.0,0.0
13652.0,0.0
13655.0,0.0
13657.0,0.0
13659.0,0.0
13661.0,0.0
13663.0,0.0
13665.0,0.0
13667.0,0.0
13669.0,0.0
13671.0,0.0
13673.0,0.0
13674.0,0.0
13676.0,0.0
13678.0,0.0
13680.0,0.0
13682.0,0.0
13684.0,0.0
13686.0,0.0
13688.0,0.0
13690.0,0.0
13692.0,0.0
13694.0,0.0
13697.0,0.0
13699.0,0.72
13701.0,1.25
13703.0,1.4
13705.0,0.93
13707.0,0.44
13709.0,0.44
13711.0,0.0
13713.0,0.0
13715.0,0.04
13716.0,0.62
13718.0,1.52
13720.0,2.34
13722.0,2.3
13724.0,1.69
13726.0,1.51
13728.0,1.03
13730.0,0.5
13732.0,0.0
13734.0,0.0
13736.0,0.05
13739.0,1.38
13741.0,2.29
13743.0,2.16
13745.0,1.86
13747.0,1.48
13749.0,1.15
13751.0,0.26
13753.0,0.0
13755.0,0.0
13757.0,0.48
13758.0,1.48
13760.0,2.25
13762.0,2.56
13764.0,2.34
13766.0,1.85
13768.0,1.38
13770.0,0.55
13772.0,0.0
13774.0,0.05
13776.0,0.84
13778.0,1.72
13780.0,2.75
13783.0,2.55
13785.0,1.96
13787.0,1.56
13789.0,1.47
13791.0,0.93
13793.0,0.34
13795.0,0.05
13797.0,0.99
13799.0,2.43
13801.0,3.3
13802.0,3.3
13804.0,3.3
13806.0,3.15
13808.0,2.74
13810.0,2.06
13812.0,1.74
13814.0,1.82
13816.0,2.35
13818.0,3.23
13820.0,3.3
13822.0,3.26
13825.0,2.89
13827.0,2.6
13829.0,2.08
13831.0,1.42
13833.0,0.57
13835.0,0.0
13837.0,0.29
13839.0,1.15
13841.0,1.78
13843.0,1.74
13844.0,1.52
13846.0,1.52
13848.0,0.9
13850.0,0.25
13852.0,0.0
13854.0,0.0
13856.0,0.2
13858.0,1.34
13860.0,2.09
13862.0,1.59
13864.0,1.05
13867.0,0.66
13869.0,0.3
13871.0,0.01
13873.0,0.0
13875.0,0.0
13877.0,0.22
13879.0,1.33
13881.0,1.89
13883.0,1.72
13885.0,1.59
13886.0,1.44
13888.0,0.94
13890.0,0.15
13892.0,0.0
13894.0,0.0
13896.0,0.26
13898.0,1.4
13900.0,1.85
13902.0,0.94
13904.0,0.85
13906.0,0.46
13908.0,0.44
13911.0,0.03
13913.0,0.0
13915.0,0.0
13917.0,0.31
13919.0,1.32
13921.0,1.6
13923.0,1.56
13925.0,1.45
13927.0,0.83
13929.0,0.84
13930.0,0.28
13932.0,0.07
13934.0,0.16
13936.0,0.34
13938.0,1.18
13940.0,2.11
13942.0,2.51
13944.0,2.11
13946.0,1.74
13948.0,1.37
13950.0,0.88
13953.0,0.24
13955.0,0.26
13957.0,0.61
13959.0,1.97
13961.0,2.85
13963.0,2.85
13965.0,2.33
13967.0,2.18
13969.0,1.61
13971.0,1.02
13972.0,0.65
13974.0,0.92
13976.0,1.33
13978.0,2.42
13980.0,3.17
13982.0,2.96
13984.0,2.64
13986.0,2.22
13988.0,2.13
13990.0,2.05
13992.0,1.8
13995.0,2.02
13997.0,2.57
13999.0,3.3
14001.0,3.3
14003.0,3.3
14005.0,3.25
14007.0,3.25
14009.0,3.22
14011.0,2.74
14013.0,2.68
14014.0,2.85
14016.0,3.02
14018.0,3.3
14020.0,3.3
14022.0,3.3
14024.0,3.3
14026.0,3.3
14028.0,3.3
14030.0,2.92
14032.0,2.94
14034.0,3.04
14036.0,3.3
14039.0,3.3
14041.0,3.3
14043.0,3.3
14045.0,3.3
14047.0,3.3
14049.0,3.07
14051.0,2.56
14053.0,2.0
14055.0,1.92
14057.0,3.22
14058.0,3.3
14060.0,3.3
14062.0,3.3
14064.0,3.3
14066.0,3.3
14068.0,3.3
14070.0,3.3
14072.0,3.28
14074.0,3.3
14076.0,3.3
14078.0,3.3
14081.0,3.3
14083.0,3.3
14085.0,3.3
14087.0,3.3
14089.0,3.3
14091.0,3.3
14093.0,3.3
14095.0,3.3
14097.0,3.3
14099.0,3.3
14100.0,3.3
14102.0,3.3
14104.0,3.3
14106.0,3.3
14108.0,3.3
14110.0,3.3
14112.0,3.3
14114.0,3.3
14116.0,3.3
14118.0,3.3
14120.0,3.3
14123.0,3.3
14125.0,3.3
14127.0,3.3
14129.0,3.3
14131.0,3.3
14133.0,3.21
14135.0,3.3
14137.0,3.3
14139.0,3.3
14141.0,3.3
14142.0,3.3
14144.0,3.3
14146.0,3.3
14148.0,3.3
14150.0,3.3
14152.0,3.3
14154.0,3.3
14156.0,3.3
14158.0,3.3
14160.0,3.3
14162.0,3.3
14164.0,3.3
14167.0,3.3
14169.0,3.3
14171.0,3.3
14173.0,3.3
14175.0,3.3
14177.0,3.3
14179.0,3.3
14181.0,3.3
14183.0,3.3
14185.0,3.3
14186.0,3.3
14188.0,3.1
14190.0,1.9
14192.0,0.51
14194.0,0.0
14196.0,0.35
14198.0,2.76
14200.0,1.96
14202.0,0.4
14204.0,0.0
14206.0,0.0
14209.0,0.0
14211.0,0.0
14213.0,0.0
14215.0,0.0
14217.0,0.0
14219.0,0.27
14221.0,0.98
14223.0,1.79
14225.0,1.75
14227.0,2.05
14228.0,2.1
14230.0,2.17
14232.0,2.28
14234.0,3.04
14236.0,3.3
14238.0,3.3
14240.0,3.3
14242.0,3.3
14244.0,3.3
14246.0,3.3
14248.0,3.3
14251.0,3.3
14253.0,3.3
14255.0,3.3
14257.0,3.3
14259.0,3.3
14261.0,3.3
14263.0,3.3
14265.0,3.3
14267.0,3.3
14269.0,3.3
14270.0,3.3
14272.0,3.3
14274.0,3.3
14276.0,3.3
14278.0,3.3
14280.0,3.3
14282.0,3.3
14284.0,3.3
14286.0,3.3
14288.0,3.3
14290.0,3.3
14292.0,3.3
14295.0,3.3
14297.0,3.3
14299.0,3.3
14301.0,3.3
14303.0,3.3
14305.0,3.3
14307.0,3.3
14309.0,3.3
14311.0,3.3
14313.0,3.3
14314.0,3.3
14316.0,3.3
14318.0,3.3
14320.0,3.3
14322.0,3.28
14324.0,2.84
14326.0,2.29
14328.0,2.1
14330.0,1.0
14332.0,0.45
14334.0,0.57
14337.0,1.22
14339.0,1.68
14341.0,1.14
14343.0,0.28
14345.0,0.0
14347.0,0.0
14349.0,0.0
14351.0,0.0
14353.0,0.0
14355.0,0.0
14356.0,0.0
14358.0,0.0
14360.0,0.0
14362.0,0.0
14364.0,0.0
14366.0,0.0
14368.0,0.0
14370.0,0.0
14372.0,0.0
14374.0,0.0
14376.0,0.0
14379.0,0.0
14381.0,0.0
14383.0,0.0
14385.0,0.0
14387.0,0.0
14389.0,0.0
14391.0,0.0
14393.0,0.0
14395.0,0.0
14397.0,0.0
14398.0,0.0
14400.0,0.0
14402.0,0.0
14404.0,0.0
14406.0,0.0
14408.0,0.0
14410.0,0.0
14412.0,0.0
14414.0,0.0
14416.0,0.0
14418.0,0.0
14420.0,0.0
14423.0,0.0
14425.0,0.0
14427.0,0.0
14429.0,0.0
14431.0,0.0
14433.0,0.0
14435.0,0.0
14437.0,0.0
14439.0,0.0
14441.0,0.0
14442.0,0.0
14444.0,0.0
14446.0,0.0
14448.0,0.0
14450.0,0.0
14452.0,0.0
14454.0,0.0
14456.0,0.0
14458.0,0.0
14460.0,0.0
14462.0,0.0
14465.0,0.0
14467.0,0.0
14469.0,0.0
14471.0,0.0
14473.0,0.0
14475.0,0.0
14477.0,0.0
14479.0,0.0
14481.0,0.0
14483.0,0.0
14484.0,0.0
14486.0,0.0
14488.0,0.0
14490.0,0.0
14492.0,0.0
14494.0,0.0
14496.0,0.0
14498.0,0.0
14500.0,0.54
14502.0,0.6
14504.0,0.82
14507.0,0.63
14509.0,0.0
14511.0,0.0
14513.0,0.0
14515.0,0.0
14517.0,0.04
14519.0,0.62
14521.0,1.01
14523.0,1.17
14525.0,0.69
14527.0,0.0
14528.0,0.0
14530.0,0.0
14532.0,0.0
14534.0,0.0
14536.0,0.0
14538.0,0.0
14540.0,0.0
14542.0,0.0
14544.0,0.0
14546.0,0.0
14548.0,0.0
14551.0,0.0
14553.0,0.0
14555.0,0.0
14557.0,0.0
14559.0,0.0
14561.0,0.0
14563.0,0.0
14565.0,0.0
14567.0,0.0
14569.0,0.0
14570.0,0.0
14572.0,0.0
14574.0,0.0
14576.0,0.0
14578.0,0.0
14580.0,0.0
14582.0,0.0
14584.0,0.0
14586.0,0.0
14588.0,0.0
14590.0,0.0
14593.0,0.0
14595.0,0.0
14597.0,0.0
14599.0,0.0
14601.0,0.0
14603.0,0.0
14605.0,0.0
14607.0,0.0
14609.0,0.0
14611.0,0.0
14612.0,0.0
14614.0,0.0
14616.0,0.0
14618.0,0.0
14620.0,0.0
14622.0,0.0
14624.0,0.0
14626.0,0.0
14628.0,0.0
14630.0,0.0
14632.0,0.0
14635.0,0.0
14637.0,0.0
14639.0,0.0
14641.0,0.0
14643.0,0.0
14645.0,0.0
14647.0,0.0
14649.0,0.0
14651.0,0.0
14653.0,0.0
14655.0,0.0
14656.0,0.0
14658.0,0.17
14660.0,0.43
14662.0,0.45
14664.0,0.15
14666.0,0.0
14668.0,0.0
14670.0,0.0
14672.0,0.0
14674.0,0.0
14676.0,0.01
14679.0,0.61
14681.0,0.78
14683.0,0.41
14685.0,0.0
14687.0,0.0
14689.0,0.0
14691.0,0.0
14693.0,0.0
14695.0,0.0
14697.0,0.0
14698.0,0.05
14700.0,0.09
14702.0,0.06
14704.0,0.0
14706.0,0.0
14708.0,0.0
14710.0,0.0
14712.0,0.0
14714.0,0.0
14716.0,0.0
14718.0,0.0
14721.0,0.0
14723.0,0.0
14725.0,0.0
14727.0,0.0
14729.0,0.0
14731.0,0.0
14733.0,0.0
14735.0,0.0
14737.0,0.0
14739.0,0.0
14740.0,0.0
14742.0,0.0
14744.0,0.0
14746.0,0.0
14748.0,0.0
14750.0,0.0
14752.0,0.0
14754.0,0.0
14756.0,0.05
14758.0,0.87
14760.0,1.02
14763.0,1.02
14765.0,0.69
14767.0,0.28
14769.0,0.0
14771.0,0.0
14773.0,0.0
14775.0,0.09
14777.0,1.15
14779.0,2.27
14781.0,2.48
14783.0,2.13
14784.0,1.77
14786.0,1.67
14788.0,1.0
14790.0,0.84
14792.0,0.93
14794.0,1.82
14796.0,3.17
14798.0,3.3
14800.0,3.3
14802.0,3.28
14804.0,2.85
14807.0,2.23
14809.0,1.46
14811.0,0.87
14813.0,0.83
14815.0,1.27
14817.0,2.5
14819.0,3.3
14821.0,3.3
14823.0,3.3
14825.0,3.06
14826.0,2.8
14828.0,2.19
14830.0,1.28
14832.0,0.93
14834.0,1.32
14836.0,2.74
14838.0,3.3
14840.0,3.3
14842.0,3.26
14844.0,2.94
14846.0,2.41
14849.0,1.78
14851.0,0.97
14853.0,0.46
14855.0,1.07
14857.0,2.19
14859.0,3.28
14861.0,3.3
14863.0,3.14
14865.0,2.61
14867.0,2.01
14868.0,1.47
14870.0,0.11
14872.0,0.0
14874.0,0.0
14876.0,0.01
14878.0,0.29
14880.0,0.37
14882.0,0.0
14884.0,0.0
14886.0,0.0
14888.0,0.0
14891.0,0.0
14893.0,0.0
14895.0,0.0
14897.0,0.42
14899.0,1.51
14901.0,1.72
14903.0,1.5
14905.0,1.29
14907.0,0.76
14909.0,0.4
14911.0,0.06
14912.0,0.0
14914.0,0.28
14916.0,1.71
14918.0,2.74
14920.0,2.7
14922.0,2.25
14924.0,1.98
14926.0,1.73
14928.0,1.31
14930.0,0.88
14932.0,0.62
14935.0,1.04
14937.0,2.21
14939.0,3.3
14941.0,3.3
14943.0,3.3
14945.0,3.13
14947.0,2.56
14949.0,2.05
14951.0,1.47
14953.0,1.42
14954.0,1.81
14956.0,2.74
14958.0,3.3
14960.0,3.3
14962.0,3.3
14964.0,3.3
14966.0,3.29
14968.0,2.82
14970.0,2.3
14972.0,1.98
14974.0,2.27
14977.0,3.3
14979.0,3.3
14981.0,3.3
14983.0,3.3
14985.0,3.3
14987.0,3.09
14989.0,2.68
14991.0,2.05
14993.0,1.76
14995.0,2.11
14996.0,3.3
14998.0,3.3
15000.0,3.3
15002.0,3.3
15004.0,3.21
15006.0,2.52
15008.0,2.15
15010.0,2.04
15012.0,2.3
15014.0,2.98
15016.0,3.3
15019.0,3.3
15021.0,3.3
15023.0,3.3
15025.0,3.3
15027.0,3.3
15029.0,3.28
15031.0,2.94
15033.0,2.84
15035.0,3.27
15037.0,3.3
15039.0,3.3
15040.0,3.3
15042.0,3.3
15044.0,3.3
15046.0,3.3
15048.0,3.05
15050.0,2.57
15052.0,2.97
15054.0,3.3
15056.0,3.3
15058.0,3.3
15060.0,3.3
15063.0,3.3
15065.0,3.3
15067.0,3.3
15069.0,3.3
15071.0,3.03
15073.0,2.6
15075.0,2.74
15077.0,3.3
15079.0,3.3
15081.0,3.3
15082.0,3.3
15084.0,3.3
15086.0,3.3
15088.0,2.54
15090.0,2.16
15092.0,1.92
15094.0,3.3
15096.0,3.3
15098.0,3.3
15100.0,3.3
15102.0,3.3
15105.0,3.3
15107.0,3.3
15109.0,3.07
15111.0,2.58
15113.0,2.36
15115.0,2.95
15117.0,3.3
15119.0,3.3
15121.0,3.3
15123.0,3.3
15124.0,3.3
15126.0,3.3
15128.0,3.25
15130.0,2.65
15132.0,2.68
15134.0,3.25
15136.0,3.3
15138.0,3.3
15140.0,3.3
15142.0,3.3
15144.0,3.3
15147.0,3.3
15149.0,3.3
15151.0,2.86
15153.0,2.82
15155.0,3.3
15157.0,3.3
15159.0,3.3
15161.0,3.3
15163.0,3.3
15165.0,3.3
15167.0,3.3
15168.0,3.3
15170.0,3.22
15172.0,3.3
15174.0,3.3
15176.0,3.3
15178.0,3.3
15180.0,3.3
15182.0,3.3
15184.0,3.3
15186.0,3.3
15188.0,3.3
15191.0,3.3
15193.0,3.3
15195.0,3.3
15197.0,3.3
15199.0,3.3
15201.0,3.3
15203.0,3.3
15205.0,3.3
15207.0,3.3
15209.0,3.3
15210.0,3.16
15212.0,3.24
15214.0,3.3
15216.0,3.3
15218.0,3.3
15220.0,3.3
15222.0,3.3
15224.0,3.3
15226.0,3.3
15228.0,3.29
15230.0,2.48
15233.0,2.37
15235.0,3.01
15237.0,3.3
15239.0,3.3
15241.0,3.3
15243.0,3.3
15245.0,3.3
15247.0,3.3
15249.0,3.3
15251.0,2.9
15253.0,2.95
15254.0,3.3
15256.0,3.3
15258.0,3.3
15260.0,3.3
15262.0,3.3
15264.0,3.3
15266.0,3.3
15268.0,3.3
15270.0,3.3
15272.0,3.3
15275.0,3.3
15277.0,3.3
15279.0,3.3
15281.0,3.3
15283.0,3.3
15285.0,3.3
15287.0,3.3
15289.0,3.3
15291.0,3.3
15293.0,3.3
15295.0,3.3
15296.0,3.3
15298.0,3.3
15300.0,3.3
15302.0,3.3
15304.0,3.3
15306.0,3.3
15308.0,3.3
15310.0,3.21
15312.0,3.14
15314.0,3.3
15316.0,3.3
15319.0,3.3
15321.0,3.3
15323.0,3.3
15325.0,3.3
15327.0,3.3
15329.0,3.3
15331.0,3.18
15333.0,3.3
15335.0,3.3
15337.0,3.3
15338.0,3.3
15340.0,3.3
15342.0,3.3
15344.0,3.3
15346.0,3.24
15348.0,2.62
15350.0,1.61
15352.0,0.95
15354.0,1.72
15356.0,3.03
15358.0,3.3
15361.0,3.3
15363.0,3.2
15365.0,2.62
15367.0,1.54
15369.0,0.36
15371.0,0.0
15373.0,0.0
15375.0,0.11
15377.0,1.1
15379.0,1.65
15381.0,1.78
15382.0,1.18
15384.0,0.0
15386.0,0.0
15388.0,0.0
15390.0,0.0
15392.0,0.0
15394.0,0.0
15396.0,0.0
15398.0,0.0
15400.0,0.0
15403.0,0.0
15405.0,0.0
15407.0,0.0
15409.0,0.0
15411.0,0.0
15413.0,0.0
15415.0,0.0
15417.0,0.0
15419.0,0.0
15421.0,0.0
15423.0,0.0
15424.0,0.0
15426.0,0.0
15428.0,0.0
15430.0,0.0
15432.0,0.0
15434.0,0.0
15436.0,0.0
15438.0,0.0
15440.0,0.0
15442.0,0.0
15444.0,0.0
15447.0,0.0
15449.0,0.0
15451.0,0.0
15453.0,0.0
15455.0,0.0
15457.0,0.0
15459.0,0.0
15461.0,0.0
15463.0,0.0
15465.0,0.0
15466.0,0.0
15468.0,0.0
15470.0,0.0
15472.0,0.0
15474.0,0.0
15476.0,0.0
15478.0,0.0
15480.0,0.0
15482.0,0.0
15484.0,0.0
15486.0,0.0
15489.0,0.0
15491.0,0.0
15493.0,0.0
15495.0,0.0
15497.0,0.0
15499.0,0.0
15501.0,0.0
15503.0,0.0
15505.0,0.0
15507.0,0.0
15509.0,0.0
15510.0,0.0
15512.0,0.0
15514.0,0.0
15516.0,0.0
15518.0,0.0
15520.0,0.0
15522.0,0.0
15524.0,0.0
15526.0,0.0
15528.0,0.0
15531.0,0.0
15533.0,0.0
15535.0,0.0
15537.0,0.0
15539.0,0.0
15541.0,0.0
15543.0,0.0
15545.0,0.0
15547.0,0.0
15549.0,0.0
15551.0,0.0
15552.0,0.0
15554.0,0.0
15556.0,0.0
15558.0,0.0
15560.0,0.0
15562.0,0.0
15564.0,0.0
15566.0,0.0
15568.0,0.0
15570.0,0.0
15572.0,0.0
15575.0,0.0
15577.0,0.0
15579.0,0.0
15581.0,0.0
15583.0,0.0
15585.0,0.0
15587.0,0.0
15589.0,0.0
15591.0,0.0
15593.0,0.0
15594.0,0.0
15596.0,0.0
15598.0,0.0
15600.0,0.0
15602.0,0.0
15604.0,0.0
15606.0,0.0
15608.0,0.0
15610.0,0.0
15612.0,0.59
15614.0,2.25
15617.0,3.3
15619.0,3.3
15621.0,3.3
15623.0,3.3
15625.0,3.3
15627.0,3.3
15629.0,3.3
15631.0,3.3
15633.0,3.3
15635.0,3.3
15637.0,3.3
15638.0,3.3
15640.0,3.3
15642.0,3.3
15644.0,3.3
15646.0,3.3
15648.0,3.3
15650.0,3.3
15652.0,3.3
15654.0,3.3
15656.0,3.3
15659.0,3.3
15661.0,2.91
15663.0,2.2
15665.0,1.73
15667.0,1.93
15669.0,0.0
15671.0,0.0
15673.0,0.0
15675.0,1.57
15677.0,1.83
15679.0,0.0
15680.0,3.3
15682.0,3.3
15684.0,3.3
15686.0,3.3
15688.0,3.3
15690.0,3.3
15692.0,3.3
15694.0,3.3
15696.0,3.3
15698.0,3.3
15700.0,3.3
15703.0,3.3
15705.0,3.3
15707.0,3.3
15709.0,3.3
15711.0,3.3
15713.0,3.3
15715.0,3.3
15717.0,3.3
15719.0,3.3
15721.0,3.3
15722.0,3.3
15724.0,2.99
15726.0,2.45
15728.0,2.82
15730.0,1.11
15732.0,0.85
15734.0,3.3
15736.0,3.3
15738.0,3.3
15740.0,3.3
15742.0,3.3
15745.0,3.3
15747.0,2.54
15749.0,2.25
15751.0,0.67
15753.0,0.0
15755.0,0.0
15757.0,0.0
15759.0,0.0
15761.0,0.0
15763.0,0.0
15765.0,0.0
15766.0,0.0
15768.0,0.0
15770.0,0.0
15772.0,0.0
15774.0,0.0
15776.0,0.0
15778.0,0.0
15780.0,0.0
15782.0,0.0
15784.0,0.0
15787.0,0.0
15789.0,0.0
15791.0,0.0
15793.0,0.0
15795.0,0.0
15797.0,0.0
15799.0,0.0
15801.0,0.0
15803.0,0.0
15805.0,0.0
15807.0,0.0
15808.0,0.0
15810.0,0.0
15812.0,0.0
15814.0,0.0
15816.0,0.0
15818.0,0.0
15820.0,0.0
15822.0,0.0
15824.0,0.0
15826.0,0.0
15828.0,0.0
15831.0,0.0
15833.0,0.0
15835.0,0.0
15837.0,0.0
15839.0,0.0
15841.0,0.0
15843.0,0.0
15845.0,0.0
15847.0,0.0
15849.0,0.0
15850.0,0.0
15852.0,0.0
15854.0,0.0
15856.0,0.0
15858.0,0.0
15860.0,0.0
15862.0,0.0
15864.0,0.0
15866.0,0.0
15868.0,0.0
15870.0,0.0
15873.0,0.0
15875.0,0.0
15877.0,0.0
15879.0,0.0
15881.0,0.0
15883.0,0.0
15885.0,0.0
15887.0,0.0
15889.0,0.0
15891.0,0.0
15893.0,0.0
15894.0,0.0
15896.0,0.0
15898.0,0.0
15900.0,0.0
15902.0,0.0
15904.0,0.0
15906.0,0.0
15908.0,0.0
15910.0,0.0
15912.0,0.0
15915.0,0.0
15917.0,0.16
15919.0,0.11
15921.0,0.0
15923.0,0.0
15925.0,0.0
15927.0,0.0
15929.0,0.0
15931.0,0.0
15933.0,0.0
15935.0,0.0
15936.0,0.0
15938.0,0.0
15940.0,0.0
15942.0,0.0
15944.0,0.0
15946.0,0.0
15948.0,0.0
15950.0,0.0
15952.0,0.0
15954.0,0.0
15956.0,0.0
15959.0,0.0
15961.0,0.0
15963.0,0.0
15965.0,0.0
15967.0,0.0
15969.0,0.0
15971.0,0.0
15973.0,0.0
15975.0,0.0
15977.0,0.04
15978.0,0.58
15980.0,0.87
15982.0,0.59
15984.0,0.0
15986.0,0.0
15988.0,0.0
15990.0,0.0
15992.0,0.0
15994.0,1.1
15996.0,2.75
15998.0,3.28
16001.0,2.93
16003.0,2.64
16005.0,2.11
16007.0,1.45
16009.0,0.33
16011.0,0.31
16013.0,0.64
16015.0,1.91
16017.0,3.3
16019.0,3.3
16021.0,3.3
16022.0,3.3
16024.0,3.3
16026.0,3.3
16028.0,2.79
16030.0,2.22
16032.0,2.57
16034.0,3.3
16036.0,3.3
16038.0,3.3
16040.0,3.3
16043.0,3.3
16045.0,3.25
16047.0,2.65
16049.0,1.57
16051.0,1.02
16053.0,1.72
16055.0,3.3
16057.0,3.3
16059.0,3.3
16061.0,3.3
16063.0,3.3
16064.0,3.3
16066.0,3.3
16068.0,3.01
16070.0,2.66
16072.0,2.88
16074.0,3.3
16076.0,3.3
16078.0,3.3
16080.0,3.3
16082.0,3.3
16084.0,3.3
16087.0,3.3
16089.0,2.75
16091.0,1.77
16093.0,1.62
16095.0,2.9
16097.0,3.3
16099.0,3.3
16101.0,3.3
16103.0,3.3
16105.0,3.3
16106.0,3.3
16108.0,2.92
16110.0,2.79
16112.0,3.3
16114.0,3.3
16116.0,3.3
16118.0,3.3
16120.0,3.3
16122.0,3.3
16124.0,3.3
16126.0,3.3
16129.0,2.3
16131.0,1.54
16133.0,1.56
16135.0,2.07
16137.0,3.3
16139.0,3.24
16141.0,1.9
16143.0,1.15
16145.0,0.83
16147.0,0.0
16149.0,0.0
16150.0,0.0
16152.0,0.0
16154.0,0.17
16156.0,1.53
16158.0,2.02
16160.0,1.59
16162.0,1.07
16164.0,0.25
16166.0,0.0
16168.0,0.0
16171.0,0.0
16173.0,0.0
16175.0,0.01
16177.0,1.07
16179.0,1.47
16181.0,1.03
16183.0,0.0
16185.0,0.0
16187.0,0.0
16189.0,0.0
16191.0,0.0
16192.0,0.0
16194.0,0.16
16196.0,1.15
16198.0,1.46
16200.0,1.25
16202.0,0.77
16204.0,0.6
16206.0,0.0
16208.0,0.0
16210.0,0.0
16212.0,0.0
16215.0,0.65
16217.0,2.01
16219.0,2.49
16221.0,2.17
16223.0,1.69
16225.0,1.06
16227.0,0.05
16229.0,0.0
16231.0,0.0
16233.0,0.0
16234.0,1.25
16236.0,2.96
16238.0,3.27
16240.0,3.04
16242.0,2.59
16244.0,2.0
16246.0,0.92
16248.0,0.0
16250.0,0.0
16252.0,0.46
16254.0,2.0
16257.0,3.3
16259.0,3.3
16261.0,3.3
16263.0,3.05
16265.0,2.21
16267.0,1.51
16269.0,0.29
16271.0,0.0
16273.0,0.28
16275.0,1.75
16277.0,3.25
16278.0,3.3
16280.0,3.3
16282.0,2.73
16284.0,2.27
16286.0,1.4
16288.0,0.57
16290.0,0.19
16292.0,0.43
16294.0,1.69
16296.0,3.1
16299.0,3.3
16301.0,3.18
16303.0,2.22
16305.0,0.64
16307.0,0.0
16309.0,0.0
16311.0,0.0
16313.0,0.0
16315.0,0.86
16317.0,1.92
16319.0,1.75
16320.0,1.53
16322.0,1.4
16324.0,0.7
16326.0,0.35
16328.0,0.0
16330.0,0.0
16332.0,0.48
16334.0,2.28
16336.0,3.3
16338.0,3.3
16340.0,3.3
16343.0,3.3
16345.0,3.3
16347.0,3.3
16349.0,3.3
16351.0,3.3
16353.0,3.3
16355.0,3.3
16357.0,3.3
16359.0,3.3
16361.0,3.3
16362.0,3.3
16364.0,3.3
16366.0,3.3
16368.0,3.3
16370.0,3.3
16372.0,3.3
16374.0,3.3
16376.0,3.3
16378.0,3.3
16380.0,3.3
16382.0,3.3
16385.0,3.3
16387.0,3.3
16389.0,3.3
16391.0,3.3
16393.0,3.3
16395.0,3.3
16397.0,3.3
16399.0,3.3
16401.0,3.3
16403.0,3.3
16405.0,3.07
16406.0,1.87
16408.0,0.41
16410.0,0.01
16412.0,0.79
16414.0,2.5
16416.0,3.3
16418.0,3.3
16420.0,3.3
16422.0,3.3
16424.0,3.3
16427.0,2.86
16429.0,1.55
16431.0,1.08
16433.0,1.89
16435.0,3.24
16437.0,3.3
16439.0,3.3
16441.0,3.3
16443.0,3.3
16445.0,3.15
16447.0,1.92
16448.0,0.51
16450.0,0.51
16452.0,1.23
16454.0,2.64
16456.0,3.3
16458.0,3.3
16460.0,3.3
16462.0,3.3
16464.0,2.94
16466.0,1.86
16468.0,0.59
16471.0,0.41
16473.0,1.86
16475.0,3.3
16477.0,3.3
16479.0,3.3
16481.0,3.3
16483.0,3.3
16485.0,3.3
16487.0,3.3
16489.0,3.21
16490.0,2.79
16492.0,3.3
16494.0,3.3
16496.0,3.3
16498.0,3.3
16500.0,3.3
16502.0,3.3
16504.0,3.2
16506.0,1.91
16508.0,0.0
16510.0,0.0
16513.0,0.0
16515.0,1.12
16517.0,2.17
16519.0,1.72
16521.0,0.69
16523.0,0.0
16525.0,0.0
16527.0,0.0
16529.0,0.0
16531.0,0.0
16533.0,0.0
16534.0,0.0
16536.0,0.0
16538.0,0.0
16540.0,0.0
16542.0,0.0
16544.0,0.0
16546.0,0.0
16548.0,0.0
16550.0,0.0
16552.0,0.0
16555.0,0.0
16557.0,0.0
16559.0,0.31
16561.0,0.66
16563.0,0.36
16565.0,0.0
16567.0,0.0
16569.0,0.0
16571.0,0.0
16573.0,0.32
16575.0,2.3
16576.0,3.3
16578.0,3.3
16580.0,3.3
16582.0,3.12
16584.0,1.15
16586.0,0.0
16588.0,0.0
16590.0,0.0
16592.0,0.08
16594.0,1.25
16596.0,3.12
16599.0,3.3
16601.0,2.95
16603.0,1.83
16605.0,0.91
16607.0,0.0
16609.0,0.0
16611.0,0.0
16613.0,0.0
16615.0,1.45
16617.0,3.28
16619.0,3.23
16620.0,2.79
16622.0,2.2
16624.0,1.54
16626.0,0.8
16628.0,0.0
16630.0,0.0
16632.0,0.41
16634.0,2.55
16636.0,3.3
16638.0,3.3
16641.0,3.3
16643.0,3.3
16645.0,3.3
16647.0,2.92
16649.0,2.08
16651.0,2.88
16653.0,3.3
16655.0,3.3
16657.0,3.3
16659.0,3.3
16661.0,3.3
16662.0,2.71
16664.0,0.97
16666.0,0.0
16668.0,0.0
16670.0,0.0
16672.0,0.0
16674.0,1.19
16676.0,2.35
16678.0,2.11
16680.0,1.3
16683.0,0.41
16685.0,0.0
16687.0,0.0
16689.0,0.0
16691.0,0.0
16693.0,0.0
16695.0,0.27
16697.0,2.06
16699.0,3.24
16701.0,2.89
16703.0,2.24
16704.0,1.49
16706.0,0.43
16708.0,0.0
16710.0,0.0
16712.0,0.14
16714.0,1.7
16716.0,3.13
16718.0,3.3
16720.0,2.51
16722.0,1.93
16724.0,0.84
16727.0,0.0
16729.0,0.0
16731.0,0.0
16733.0,0.0
16735.0,1.12
16737.0,2.68
16739.0,2.94
16741.0,2.23
16743.0,1.36
16745.0,0.37
16747.0,0.0
16748.0,0.0
16750.0,0.0
16752.0,0.0
16754.0,0.61
16756.0,1.8
16758.0,1.71
16760.0,1.21
16762.0,0.62
16764.0,0.0
16766.0,0.0
16769.0,0.0
16771.0,0.0
16773.0,0.0
16775.0,0.19
16777.0,0.76
16779.0,0.44
16781.0,0.0
16783.0,0.0
16785.0,0.0
16787.0,0.0
16789.0,0.0
16790.0,0.0
16792.0,0.0
16794.0,0.27
16796.0,1.42
16798.0,1.38
16800.0,0.78
16802.0,0.34
16804.0,0.0
16806.0,0.0
16808.0,0.0
16811.0,0.0
16813.0,0.0
16815.0,0.75
16817.0,1.95
16819.0,1.82
16821.0,1.39
16823.0,0.72
16825.0,0.0
16827.0,0.0
16829.0,0.0
16831.0,0.0
16832.0,0.0
16834.0,0.34
16836.0,1.31
16838.0,0.95
16840.0,0.0
16842.0,0.0
16844.0,0.0
16846.0,0.0
16848.0,0.0
16850.0,0.0
16852.0,0.0
16855.0,0.0
16857.0,0.0
16859.0,0.0
16861.0,0.0
16863.0,0.0
16865.0,0.0
16867.0,0.0
16869.0,0.0
16871.0,0.0
16873.0,0.0
16875.0,0.06
16876.0,1.13
16878.0,1.36
16880.0,0.91
16882.0,0.38
16884.0,0.0
16886.0,0.0
16888.0,0.0
16890.0,0.0
16892.0,0.0
16894.0,0.34
16897.0,0.0
16899.0,0.0
16901.0,0.0
16903.0,0.0
16905.0,0.0
16907.0,0.0
16909.0,0.0
16911.0,0.0
16913.0,0.0
16915.0,0.0
16917.0,0.0
16918.0,0.0
16920.0,0.0
16922.0,0.0
16924.0,0.0
16926.0,0.0
16928.0,0.0
16930.0,0.0
16932.0,0.0
16934.0,0.0
16936.0,0.05
16939.0,0.0
16941.0,0.0
16943.0,0.0
16945.0,0.0
16947.0,0.0
16949.0,0.0
16951.0,0.0
16953.0,0.0
16955.0,0.52
16957.0,1.63
16959.0,1.78
16960.0,1.25
16962.0,0.74
16964.0,0.04
16966.0,0.0
16968.0,0.0
16970.0,0.0
16972.0,0.0
16974.0,1.34
16976.0,2.31
16978.0,2.33
16980.0,2.04
16983.0,1.26
16985.0,0.56
16987.0,0.0
16989.0,0.0
16991.0,0.0
16993.0,0.08
16995.0,1.84
16997.0,3.23
16999.0,3.21
17001.0,2.54
17003.0,1.72
17004.0,0.81
17006.0,0.0
17008.0,0.0
17010.0,0.0
17012.0,0.41
17014.0,2.44
17016.0,3.3
17018.0,3.3
17020.0,3.07
17022.0,2.38
17025.0,1.49
17027.0,0.08
17029.0,0.0
17031.0,0.0
17033.0,0.56
17035.0,2.62
17037.0,3.3
17039.0,3.3
17041.0,2.92
17043.0,2.38
17045.0,1.29
17046.0,0.09
17048.0,0.0
17050.0,0.0
17052.0,0.73
17054.0,2.68
17056.0,3.3
17058.0,3.3
17060.0,3.05
17062.0,2.46
17064.0,1.29
17067.0,0.0
17069.0,0.0
17071.0,0.0
17073.0,0.52
17075.0,2.44
17077.0,3.3
17079.0,3.22
17081.0,2.2
17083.0,1.11
17085.0,0.0
17087.0,0.0
17088.0,0.0
17090.0,0.0
17092.0,0.0
17094.0,1.07
17096.0,2.2
17098.0,2.12
17100.0,1.37
17102.0,0.8
17104.0,0.0
17106.0,0.0
17108.0,0.0
17111.0,0.0
17113.0,0.25
17115.0,2.05
17117.0,3.06
17119.0,3.22
17121.0,2.78
17123.0,2.13
17125.0,1.19
17127.0,0.0
17129.0,0.0
17131.0,0.0
17132.0,0.38
17134.0,2.55
17136.0,3.3
17138.0,3.3
17140.0,3.17
17142.0,2.37
17144.0,1.27
17146.0,0.0
17148.0,0.0
17150.0,0.0
17153.0,0.98
17155.0,2.97
17157.0,3.3
17159.0,3.3
17161.0,3.3
17163.0,3.05
17165.0,1.91
17167.0,0.46
17169.0,0.0
17171.0,0.0
17173.0,1.0
17174.0,2.92
17176.0,3.3
17178.0,3.3
17180.0,3.02
17182.0,2.32
17184.0,1.25
17186.0,0.0
17188.0,0.0
17190.0,0.0
17192.0,1.0
17195.0,3.1
17197.0,3.3
17199.0,3.3
17201.0,3.3
17203.0,2.74
17205.0,1.89
17207.0,0.94
17209.0,0.15
17211.0,0.51
17213.0,1.83
17215.0,3.3
17216.0,3.3
17218.0,3.3
17220.0,3.3
17222.0,3.3
17224.0,2.57
17226.0,1.57
17228.0,0.63
17230.0,0.74
17232.0,2.29
17234.0,3.3
17236.0,3.3
17239.0,3.3
17241.0,3.3
17243.0,3.3
17245.0,2.78
17247.0,1.51
17249.0,0.38
17251.0,0.79
17253.0,2.08
17255.0,3.3
17257.0,3.3
17259.0,3.3
17260.0,3.3
17262.0,3.11
17264.0,2.11
17266.0,0.5
17268.0,0.0
17270.0,0.02
17272.0,1.28
17274.0,3.3
17276.0,3.3
17278.0,3.3
17281.0,3.24
17283.0,2.76
17285.0,1.72
17287.0,0.38
17289.0,0.0
17291.0,0.2
17293.0,2.23
17295.0,3.3
17297.0,3.3
17299.0,3.3
17301.0,3.3
17302.0,3.25
17304.0,2.42
17306.0,0.65
17308.0,0.0
17310.0,0.0
17312.0,0.89
17314.0,2.95
17316.0,3.3
17318.0,3.3
17320.0,2.76
17323.0,2.09
17325.0,1.07
17327.0,0.02
17329.0,0.0
17331.0,0.0
17333.0,0.89
17335.0,3.04
17337.0,3.3
17339.0,3.3
17341.0,3.0
17343.0,2.47
17345.0,1.4
17346.0,0.0
17348.0,0.0
17350.0,0.0
17352.0,0.77
17354.0,2.59
17356.0,3.3
17358.0,3.24
17360.0,2.74
17362.0,1.68
17364.0,0.6
17367.0,0.0
17369.0,0.0
17371.0,0.0
17373.0,0.83
17375.0,2.91
17377.0,3.3
17379.0,3.3
17381.0,3.1
17383.0,2.28
17385.0,1.17
17387.0,0.0
17388.0,0.0
17390.0,0.0
17392.0,0.97
17394.0,3.21
17396.0,3.3
17398.0,3.3
17400.0,2.84
17402.0,2.15
17404.0,1.09
17406.0,0.0
17409.0,0.0
17411.0,0.0
17413.0,1.23
17415.0,3.3
17417.0,3.3
17419.0,3.3
17421.0,3.3
17423.0,2.92
17425.0,1.77
17427.0,0.55
17429.0,0.0
17430.0,0.3
17432.0,1.67
17434.0,3.3
17436.0,3.3
17438.0,3.3
17440.0,3.08
17442.0,2.32
17444.0,1.28
17446.0,0.0
17448.0,0.0
17451.0,0.0
17453.0,0.87
17455.0,2.8
17457.0,3.3
17459.0,3.29
17461.0,2.82
17463.0,2.18
17465.0,0.96
17467.0,0.0
17469.0,0.0
17471.0,0.0
17473.0,0.74
17474.0,2.75
17476.0,3.3
17478.0,3.3
17480.0,3.12
17482.0,2.25
17484.0,1.22
17486.0,0.0
17488.0,0.0
17490.0,0.0
17492.0,1.1
17495.0,3.07
17497.0,3.3
17499.0,3.3
17501.0,2.72
17503.0,1.97
17505.0,0.71
17507.0,0.0
17509.0,0.0
17511.0,0.0
17513.0,0.63
17515.0,2.43
17516.0,3.19
17518.0,2.95
17520.0,2.26
17522.0,1.55
17524.0,0.43
17526.0,0.0
17528.0,0.0
17530.0,0.0
17532.0,0.68
17534.0,2.69
17537.0,3.3
17539.0,3.02
17541.0,2.38
17543.0,1.71
17545.0,0.5
17547.0,0.0
17549.0,0.0
17551.0,0.0
17553.0,1.01
17555.0,3.11
17557.0,3.3
17558.0,3.3
17560.0,3.02
17562.0,2.24
17564.0,1.07
17566.0,0.0
17568.0,0.0
17570.0,0.0
17572.0,0.77
17574.0,3.26
17576.0,3.3
17579.0,3.3
17581.0,3.3
17583.0,2.96
17585.0,2.19
17587.0,0.9
17589.0,0.17
17591.0,1.07
17593.0,3.18
17595.0,3.3
17597.0,3.3
17599.0,3.3
17601.0,3.3
17602.0,3.3
17604.0,3.3
17606.0,2.58
17608.0,1.92
17610.0,2.85
17612.0,3.3
17614.0,3.3
17616.0,3.3
17618.0,3.3
17620.0,3.3
17623.0,3.3
17625.0,3.3
17627.0,2.48
17629.0,1.84
17631.0,2.37
17633.0,3.3
17635.0,3.3
17637.0,3.3
17639.0,3.3
17641.0,3.3
17643.0,3.3
17644.0,3.3
17646.0,3.3
17648.0,3.3
17650.0,3.3
17652.0,3.3
17654.0,3.3
17656.0,3.3
17658.0,3.3
17660.0,3.3
17662.0,3.3
17665.0,3.3
17667.0,3.3
17669.0,3.3
17671.0,3.3
17673.0,3.3
17675.0,3.3
17677.0,3.3
17679.0,3.3
17681.0,3.3
17683.0,3.3
17685.0,3.3
17686.0,3.3
17688.0,3.3
17690.0,3.3
17692.0,3.3
17694.0,3.3
17696.0,3.3
17698.0,3.3
17700.0,3.3
17702.0,3.3
17704.0,3.3
17707.0,2.9
17709.0,2.74
17711.0,3.3
17713.0,3.3
17715.0,3.3
17717.0,3.3
17719.0,3.3
17721.0,3.3
17723.0,3.3
17725.0,2.6
17727.0,1.44
17729.0,0.54
17730.0,0.69
17732.0,2.55
17734.0,3.3
17736.0,1.95
17738.0,1.22
17740.0,0.74
17742.0,0.0
17744.0,0.0
17746.0,0.0
17748.0,0.0
17751.0,0.0
17753.0,0.0
17755.0,0.69
17757.0,1.78
17759.0,1.87
17761.0,2.13
17763.0,2.13
17765.0,0.2
17767.0,0.0
17769.0,0.0
17771.0,0.0
17772.0,0.45
17774.0,2.44
17776.0,3.06
17778.0,2.8
17780.0,2.26
17782.0,2.26
17784.0,1.84
17786.0,1.26
17788.0,1.17
17790.0,0.0
17793.0,2.22
17795.0,3.3
17797.0,3.3
17799.0,3.3
17801.0,3.3
17803.0,3.3
17805.0,3.01
17807.0,2.19
17809.0,1.82
17811.0,2.94
17813.0,3.3
17815.0,3.3
17816.0,3.3
17818.0,3.3
17820.0,3.3
17822.0,3.3
17824.0,2.58
17826.0,0.0
17828.0,0.0
17830.0,0.04
17832.0,2.07
17835.0,3.3
17837.0,3.3
17839.0,3.3
17841.0,3.3
17843.0,2.79
17845.0,1.38
17847.0,0.12
17849.0,0.0
17851.0,0.64
17853.0,2.14
17855.0,3.3
17857.0,3.3
17858.0,3.3
17860.0,3.3
17862.0,2.89
17864.0,1.65
17866.0,0.11
17868.0,0.0
17870.0,0.12
17872.0,1.44
17874.0,2.7
17876.0,3.03
17879.0,2.22
17881.0,1.37
17883.0,0.53
17885.0,0.0
17887.0,0.0
17889.0,0.0
17891.0,0.0
17893.0,0.46
17895.0,2.29
17897.0,2.32
17899.0,1.32
17900.0,0.0
17902.0,0.0
17904.0,0.0
17906.0,0.0
17908.0,0.0
17910.0,0.0
17912.0,0.0
17914.0,0.0
17916.0,0.0
17918.0,0.0
17921.0,0.0
17923.0,0.0
17925.0,0.0
17927.0,0.0
17929.0,0.0
17931.0,0.0
17933.0,0.0
17935.0,0.0
17937.0,0.0
17939.0,0.0
17941.0,0.0
17943.0,0.0
17944.0,0.0
17946.0,0.0
17948.0,0.0
17950.0,0.0
17952.0,0.0
17954.0,0.0
17956.0,0.0
17958.0,0.0
17960.0,0.0
17963.0,0.0
17965.0,0.0
17967.0,0.0
17969.0,0.0
17971.0,0.0
17973.0,0.0
17975.0,0.0
17977.0,0.0
17979.0,0.0
17981.0,0.0
17983.0,0.0
17985.0,0.0
17986.0,0.0
17988.0,0.0
17990.0,0.0
17992.0,0.0
17994.0,0.0
17996.0,0.0
17998.0,0.0
18000.0,0.0
18002.0,0.0
18004.0,0.0
18007.0,0.0
18009.0,0.0
18011.0,0.0
18013.0,0.0
18015.0,0.0
18017.0,0.0
18019.0,0.0
18021.0,0.0
18023.0,0.0
18025.0,0.0
18027.0,0.0
18028.0,0.0
18030.0,0.0
18032.0,0.0
18034.0,1.97
18036.0,1.14
18038.0,0.0
18040.0,0.0
18042.0,0.0
18044.0,0.0
18046.0,0.0
18049.0,0.0
18051.0,0.0
18053.0,0.0
18055.0,0.0
18057.0,0.0
18059.0,0.0
18061.0,0.0
18063.0,0.0
18065.0,0.0
18067.0,0.0
18069.0,0.0
18071.0,0.0
18072.0,0.0
18074.0,0.0
18076.0,0.0
18078.0,0.0
18080.0,0.0
18082.0,0.0
18084.0,0.0
18086.0,0.0
18088.0,0.0
18091.0,0.0
18093.0,0.0
18095.0,1.41
18097.0,1.71
18099.0,0.83
18101.0,0.0
18103.0,0.0
18105.0,0.0
18107.0,0.0
18109.0,0.0
18111.0,0.0
18113.0,1.4
18114.0,3.3
18116.0,3.3
18118.0,3.3
18120.0,3.3
18122.0,3.3
18124.0,3.1
18126.0,3.3
18128.0,3.3
18130.0,3.3
18132.0,3.3
18135.0,3.3
18137.0,3.3
18139.0,3.3
18141.0,3.3
18143.0,3.3
18145.0,3.3
18147.0,3.3
18149.0,3.3
18151.0,3.3
18153.0,3.3
18155.0,3.3
18156.0,3.3
18158.0,3.3
18160.0,3.3
18162.0,3.3
18164.0,3.3
18166.0,3.3
18168.0,3.3
18170.0,3.3
18172.0,3.3
18174.0,3.3
18177.0,3.3
18179.0,3.3
18181.0,3.3
18183.0,3.3
18185.0,3.3
18187.0,3.3
18189.0,3.3
18191.0,3.3
18193.0,3.3
18195.0,3.3
18197.0,3.3
18199.0,3.3
18200.0,3.3
18202.0,3.3
18204.0,3.3
18206.0,3.3
18208.0,3.3
18210.0,3.3
18212.0,3.3
18214.0,3.3
18216.0,3.3
18219.0,3.3
18221.0,3.3
18223.0,3.3
18225.0,2.87
18227.0,0.0
18229.0,0.0
18231.0,0.0
18233.0,1.56
18235.0,3.3
18237.0,3.09
18239.0,3.3
18241.0,3.3
18242.0,3.3
18244.0,3.22
18246.0,1.14
18248.0,1.54
18250.0,3.3
18252.0,3.3
18254.0,3.3
18256.0,3.3
18258.0,3.3
18260.0,3.3
18263.0,3.3
18265.0,3.3
18267.0,1.63
18269.0,0.54
18271.0,3.3
18273.0,3.3
18275.0,3.3
18277.0,3.3
18279.0,3.3
18281.0,3.3
18283.0,3.27
18284.0,3.05
18286.0,2.81
18288.0,2.54
18290.0,2.3
18292.0,2.05
18294.0,1.86
18296.0,1.68
18298.0,1.54
18300.0,1.4
18302.0,1.29
18305.0,1.17
18307.0,0.0
18309.0,0.0
18311.0,1.09
18313.0,1.17
18315.0,1.08
18317.0,0.98
18319.0,0.9
18321.0,0.81
18323.0,0.75
18325.0,0.69
18327.0,0.64
18328.0,0.55
18330.0,0.45
18332.0,0.35
18334.0,0.3
18336.0,0.28
18338.0,0.26
18340.0,0.25
18342.0,0.25
18344.0,0.25
18347.0,0.24
18349.0,0.19
18351.0,0.13
18353.0,0.06
18355.0,0.04
18357.0,0.05
18359.0,0.07
18361.0,0.1
18363.0,0.12
18365.0,0.15
18367.0,0.17
18369.0,0.15
18370.0,0.11
18372.0,0.05
18374.0,0.05
18376.0,0.09
18378.0,0.11
18380.0,0.15
18382.0,0.19
18384.0,0.23
18386.0,0.25
18388.0,0.23
18391.0,0.2
18393.0,0.17
18395.0,0.19
18397.0,0.2
18399.0,0.25
18401.0,0.28
18403.0,0.33
18405.0,0.35
18407.0,0.39
18409.0,0.38
18411.0,0.36
18412.0,0.33
18414.0,0.34
18416.0,0.36
18418.0,0.41
18420.0,0.43
18422.0,0.47
18424.0,0.5
18426.0,0.53
18428.0,0.52
18430.0,0.5
18433.0,0.48
18435.0,0.51
18437.0,0.55
18439.0,0.58
18441.0,0.61
18443.0,0.65
18445.0,0.67
18447.0,0.69
18449.0,0.68
18451.0,0.67
18453.0,0.65
18455.0,0.65
18456.0,0.68
18458.0,0.7
18460.0,0.74
18462.0,0.76
18464.0,0.78
18466.0,0.81
18468.0,0.81
18470.0,0.79
18472.0,0.77
18475.0,0.78
18477.0,0.81
18479.0,0.82
18481.0,0.85
18483.0,0.87
18485.0,0.9
18487.0,0.91
18489.0,0.9
18491.0,0.75
18493.0,0.0
18495.0,0.0
18497.0,0.0
18498.0,0.0
18500.0,0.0
18502.0,0.0
18504.0,0.0
18506.0,0.0
18508.0,0.0
18510.0,0.0
18512.0,0.0
18514.0,0.0
18516.0,0.0
18519.0,0.0
18521.0,0.0
18523.0,0.0
18525.0,0.0
18527.0,0.0
18529.0,0.0
18531.0,0.0
18533.0,0.0
18535.0,0.0
18537.0,0.0
18539.0,0.0
18540.0,0.0
18542.0,0.0
18544.0,0.0
18546.0,0.0
18548.0,0.0
18550.0,0.0
18552.0,0.0
18554.0,0.0
18556.0,0.0
18558.0,0.0
18561.0,0.0
18563.0,0.0
18565.0,0.0
18567.0,0.0
18569.0,0.0
18571.0,0.0
18573.0,0.0
18575.0,0.0
18577.0,0.0
18579.0,0.0
18581.0,3.3
18583.0,3.3
18584.0,3.3
18586.0,3.3
18588.0,3.3
18590.0,3.3
18592.0,3.3
18594.0,3.3
18596.0,3.3
18598.0,3.3
18600.0,3.3
18603.0,3.3
18605.0,3.3
18607.0,3.3
18609.0,3.3
18611.0,3.3
18613.0,3.3
18615.0,3.3
18617.0,3.3
18619.0,3.3
18621.0,3.3
18623.0,3.3
18625.0,3.3
18626.0,3.3
18628.0,3.3
18630.0,3.3
18632.0,3.3
18634.0,3.3
18636.0,3.3
18638.0,3.3
18640.0,3.3
18642.0,3.3
18644.0,3.3
18647.0,3.3
18649.0,3.3
18651.0,0.0
18653.0,0.0
18655.0,0.0
18657.0,0.0
18659.0,0.0
18661.0,0.0
18663.0,0.0
18665.0,0.0
18667.0,0.0
18668.0,0.0
18670.0,0.0
18672.0,0.0
18674.0,0.0
18676.0,0.0
18678.0,0.0
18680.0,0.0
18682.0,0.0
18684.0,0.0
18686.0,0.0
18689.0,0.0
18691.0,0.0
18693.0,0.0
18695.0,0.0
18697.0,0.0
18699.0,0.0
18701.0,0.0
18703.0,0.0
18705.0,0.0
18707.0,0.0
18709.0,0.0
18711.0,0.0
18712.0,0.0
18714.0,0.0
18716.0,0.0
18718.0,0.0
18720.0,0.0
18722.0,0.0
18724.0,0.0
18726.0,0.0
18728.0,0.0
18731.0,0.0
18733.0,0.0
18735.0,0.0
18737.0,0.0
18739.0,0.0
18741.0,0.0
18743.0,0.0
18745.0,0.0
18747.0,0.0
18749.0,0.0
18751.0,0.0
18753.0,0.0
18754.0,0.0
18756.0,0.0
18758.0,0.0
18760.0,0.0
18762.0,0.0
18764.0,0.0
18766.0,0.0
18768.0,0.0
18770.0,0.0
18772.0,0.0
18775.0,3.3
18777.0,3.3
18779.0,3.3
18781.0,3.3
18783.0,3.3
18785.0,3.3
18787.0,3.3
18789.0,3.3
18791.0,3.3
18793.0,3.3
18795.0,3.3
18796.0,3.3
18798.0,3.3
18800.0,3.3
18802.0,0.0
18804.0,0.0
18806.0,0.0
18808.0,0.0
18810.0,0.0
18812.0,0.0
18814.0,0.0
18817.0,0.0
18819.0,0.0
18821.0,0.0
18823.0,0.0
18825.0,0.0
18827.0,0.0
18829.0,0.0
18831.0,0.0
18833.0,0.0
18835.0,0.0
18837.0,0.0
18839.0,0.0
18840.0,0.0
18842.0,0.0
18844.0,0.0
18846.0,0.0
18848.0,0.0
18850.0,0.0
18852.0,0.0
18854.0,0.0
18856.0,0.0
18859.0,0.0
18861.0,0.0
18863.0,0.0
18865.0,0.0
18867.0,0.0
18869.0,0.0
18871.0,0.0
18873.0,0.0
18875.0,0.0
18877.0,0.0
18879.0,0.0
18881.0,0.0
18882.0,0.0
18884.0,0.0
18886.0,0.0
18888.0,0.0
18890.0,0.0
18892.0,0.0
18894.0,0.0
18896.0,0.0
18898.0,0.0
18900.0,0.0
18903.0,0.0
18905.0,0.0
18907.0,0.0
18909.0,0.0
18911.0,0.0
18913.0,0.0
18915.0,0.0
18917.0,0.0
18919.0,0.0
18921.0,0.0
18923.0,0.0
18924.0,0.0
18926.0,0.0
18928.0,0.0
18930.0,0.0
18932.0,0.0
18934.0,0.0
18936.0,0.0
18938.0,0.0
18940.0,0.0
18942.0,0.0
18945.0,0.0
18947.0,0.0
18949.0,0.15
18951.0,3.3
18953.0,3.3
18955.0,3.3
18957.0,3.3
18959.0,3.3
18961.0,3.3
18963.0,2.23
18965.0,2.4
18967.0,3.3
18968.0,3.3
18970.0,3.3
18972.0,3.3
18974.0,3.3
18976.0,3.3
18978.0,3.3
18980.0,3.3
18982.0,3.3
18984.0,3.3
18987.0,3.3
18989.0,3.3
18991.0,3.3
18993.0,3.3
18995.0,3.3
18997.0,3.3
18999.0,3.3
19001.0,3.3
19003.0,3.3
19005.0,3.3
19007.0,3.3
19009.0,3.3
19010.0,3.3
19012.0,3.3
19014.0,3.3
19016.0,3.3
19018.0,3.3
19020.0,3.3
19022.0,3.3
19024.0,3.3
19026.0,3.3
19028.0,3.3
19031.0,3.3
19033.0,3.3
19035.0,3.3
19037.0,3.3
19039.0,3.3
19041.0,3.3
19043.0,3.3
19045.0,3.3
19047.0,3.3
19049.0,3.3
19051.0,3.3
19052.0,3.3
19054.0,3.3
19056.0,3.3
19058.0,3.3
19060.0,3.3
19062.0,3.3
19064.0,3.3
19066.0,3.3
19068.0,3.3
19070.0,3.3
19073.0,3.3
19075.0,3.3
19077.0,3.3
19079.0,3.3
19081.0,3.3
19083.0,3.3
19085.0,3.3
19087.0,3.3
19089.0,3.3
19091.0,3.3
19093.0,3.3
19095.0,3.3
19096.0,3.3
19098.0,3.3
19100.0,3.3
19102.0,3.3
19104.0,3.3
19106.0,3.3
19108.0,3.3
19110.0,3.3
19112.0,3.3
19115.0,3.3
19117.0,3.3
19119.0,3.3
19121.0,3.3
19123.0,3.3
19125.0,3.3
19127.0,3.3
19129.0,3.3
19131.0,3.3
19133.0,3.3
19135.0,3.3
19137.0,3.3
19138.0,3.3
19140.0,3.3
19142.0,3.3
19144.0,3.3
19146.0,3.3
19148.0,3.3
19150.0,3.3
19152.0,3.3
19154.0,3.3
19156.0,3.3
19159.0,3.3
19161.0,3.3
19163.0,3.3
19165.0,3.3
19167.0,3.3
19169.0,3.3
19171.0,3.3
19173.0,3.3
19175.0,3.3
19177.0,3.3
19179.0,3.3
19180.0,3.3
19182.0,3.3
19184.0,3.3
19186.0,3.3
19188.0,3.3
19190.0,3.3
19192.0,3.3
19194.0,3.3
19196.0,3.3
19198.0,3.3
19201.0,3.3
19203.0,3.3
19205.0,3.3
19207.0,3.3
19209.0,3.3
19211.0,3.3
19213.0,3.3
19215.0,3.3
19217.0,3.3
19219.0,3.3
19221.0,3.3
19223.0,3.3
19224.0,3.3
19226.0,3.3
19228.0,3.3
19230.0,3.3
19232.0,3.3
19234.0,3.3
19236.0,3.3
19238.0,3.3
19240.0,3.3
19243.0,3.3
19245.0,3.3
19247.0,3.3
19249.0,3.3
19251.0,3.3
19253.0,3.3
19255.0,3.3
19257.0,3.3
19259.0,3.3
19261.0,3.3
19263.0,3.3
19265.0,3.3
19266.0,3.3
19268.0,3.3
19270.0,3.3
19272.0,3.3
19274.0,3.3
19276.0,3.3
19278.0,3.3
19280.0,3.3
19282.0,3.3
19284.0,3.3
19287.0,3.3
19289.0,3.3
19291.0,3.3
19293.0,3.3
19295.0,3.3
19297.0,3.3
19299.0,3.3
19301.0,3.3
19303.0,3.3
19305.0,3.3
19307.0,3.3
19308.0,3.3
19310.0,3.3
19312.0,3.3
19314.0,3.3
19316.0,3.3
19318.0,3.3
19320.0,3.3
19322.0,3.3
19324.0,3.3
19326.0,3.3
19329.0,3.3
19331.0,3.3
19333.0,3.3
19335.0,3.3
19337.0,3.3
19339.0,3.3
19341.0,3.3
19343.0,3.3
19345.0,3.3
19347.0,3.3
19349.0,3.3
19351.0,3.3
19352.0,3.3
19354.0,3.3
19356.0,3.3
19358.0,3.3
19360.0,3.3
19362.0,3.3
19364.0,3.3
19366.0,3.3
19368.0,3.3
19371.0,3.3
19373.0,3.3
19375.0,3.3
19377.0,3.3
19379.0,3.3
19381.0,3.3
19383.0,3.3
19385.0,3.3
19387.0,3.3
19389.0,3.3
19391.0,3.3
19393.0,3.3
19394.0,3.3
19396.0,3.13
19398.0,2.72
19400.0,2.29
19402.0,1.89
19404.0,1.52
19406.0,1.17
19408.0,0.83
19410.0,0.52
19412.0,0.24
19415.0,0.0
19417.0,0.0
19419.0,0.0
19421.0,0.0
19423.0,0.0
19425.0,0.0
19427.0,0.0
19429.0,0.0
19431.0,0.0
19433.0,0.0
19435.0,0.0
19436.0,0.0
19438.0,0.0
19440.0,0.0
19442.0,0.0
19444.0,0.0
19446.0,0.0
19448.0,0.0
19450.0,0.0
19452.0,0.0
19454.0,0.0
19457.0,0.0
19459.0,0.0
19461.0,0.0
19463.0,0.0
19465.0,0.0
19467.0,0.0
19469.0,0.0
19471.0,0.0
19473.0,0.0
19475.0,0.0
19477.0,0.0
19479.0,0.0
19480.0,0.0
19482.0,0.0
19484.0,0.0
19486.0,0.0
19488.0,0.0
19490.0,0.0
19492.0,0.0
19494.0,0.0
19496.0,0.0
19499.0,0.0
19501.0,0.0
19503.0,0.0
19505.0,0.0
19507.0,0.0
19509.0,0.0
19511.0,0.0
19513.0,0.0
19515.0,0.0
19517.0,0.0
19519.0,0.0
19521.0,0.0
19522.0,0.0
19524.0,0.0
19526.0,0.0
19528.0,0.0
19530.0,0.0
19532.0,0.0
19534.0,0.0
19536.0,0.0
19538.0,0.0
19540.0,0.0
19543.0,0.0
19545.0,0.0
19547.0,0.0
19549.0,0.0
19551.0,0.0
19553.0,0.0
19555.0,0.0
19557.0,0.0
19559.0,0.0
19561.0,0.0
19563.0,0.0
19564.0,0.0
19566.0,0.0
19568.0,0.0
19570.0,0.0
19572.0,0.0
19574.0,0.0
19576.0,0.0
19578.0,0.0
19580.0,0.0
19582.0,0.0
19585.0,0.0
19587.0,0.0
19589.0,0.0
19591.0,0.0
19593.0,0.0
19595.0,0.0
19597.0,0.0
19599.0,0.0
19601.0,0.0
19603.0,0.0
19605.0,0.0
19607.0,0.0
19608.0,0.0
19610.0,0.0
19612.0,0.0
19614.0,0.0
19616.0,0.0
19618.0,0.0
19620.0,0.0
19622.0,0.0
19624.0,0.0
19627.0,0.0
19629.0,0.0
19631.0,0.0
19633.0,0.0
19635.0,0.0
19637.0,0.0
19639.0,0.0
19641.0,0.0
19643.0,0.0
19645.0,0.0
19647.0,0.0
19649.0,0.0
19650.0,0.0
19652.0,0.0
19654.0,0.0
19656.0,0.0
19658.0,0.0
19660.0,0.0
19662.0,0.0
19664.0,0.0
19666.0,0.0
19668.0,0.0
19671.0,0.0
19673.0,0.0
19675.0,0.0
19677.0,0.0
19679.0,0.0
19681.0,0.0
19683.0,0.0
19685.0,0.0
19687.0,0.0
19689.0,0.0
19691.0,0.0
19692.0,0.0
19694.0,0.0
19696.0,0.0
19698.0,0.0
19700.0,0.0
19702.0,0.0
19704.0,0.0
19706.0,0.0
19708.0,0.0
19710.0,0.0
19713.0,0.0
19715.0,0.0
19717.0,0.0
19719.0,0.0
19721.0,0.0
19723.0,0.0
19725.0,0.0
19727.0,0.0
19729.0,0.0
19731.0,0.0
19733.0,0.0
19735.0,0.0
19736.0,0.0
19738.0,0.1
19740.0,0.0
19742.0,0.0
19744.0,0.0
19746.0,0.0
19748.0,0.0
19750.0,0.23
19752.0,1.85
19755.0,2.69
19757.0,2.43
19759.0,1.88
19761.0,0.4
19763.0,0.0
19765.0,0.0
19767.0,0.0
19769.0,0.0
19771.0,0.0
19773.0,0.0
19775.0,0.0
19777.0,0.0
19778.0,0.0
19780.0,0.0
19782.0,0.0
19784.0,0.0
19786.0,0.0
19788.0,0.0
19790.0,0.05
19792.0,2.09
19794.0,3.3
19796.0,3.3
19799.0,2.75
19801.0,1.77
19803.0,0.6
19805.0,0.0
19807.0,0.0
19809.0,0.85
19811.0,3.3
19813.0,3.3
19815.0,3.3
19817.0,3.3
19819.0,3.3
19820.0,3.3
19822.0,2.6
19824.0,0.53
19826.0,0.0
19828.0,0.73
19830.0,3.05
19832.0,3.3
19834.0,3.3
19836.0,3.3
19838.0,3.3
19841.0,2.88
19843.0,1.35
19845.0,0.0
19847.0,0.0
19849.0,0.14
19851.0,2.54
19853.0,3.3
19855.0,3.3
19857.0,3.3
19859.0,2.94
19861.0,1.41
19863.0,0.0
19864.0,0.0
19866.0,0.0
19868.0,0.11
19870.0,3.23
19872.0,3.3
19874.0,3.3
19876.0,3.3
19878.0,3.3
19880.0,3.3
19883.0,2.56
19885.0,0.98
19887.0,0.69
19889.0,1.98
19891.0,3.3
19893.0,3.3
19895.0,3.3
19897.0,3.3
19899.0,3.3
19901.0,3.3
19903.0,3.3
19905.0,1.89
19906.0,2.02
19908.0,3.3
19910.0,3.3
19912.0,3.3
19914.0,3.3
19916.0,3.3
19918.0,3.3
19920.0,3.3
19922.0,2.06
19924.0,0.0
19927.0,0.0
19929.0,0.33
19931.0,2.61
19933.0,3.3
19935.0,3.3
19937.0,3.3
19939.0,3.3
19941.0,3.0
19943.0,1.5
19945.0,0.0
19947.0,0.0
19948.0,0.51
19950.0,3.3
19952.0,3.3
19954.0,3.3
19956.0,3.3
19958.0,3.3
19960.0,2.39
19962.0,0.39
19964.0,0.0
19966.0,0.0
19969.0,0.1
19971.0,2.68
19973.0,3.3
19975.0,3.3
19977.0,3.3
19979.0,3.3
19981.0,2.77
19983.0,0.95
19985.0,0.0
19987.0,0.0
19989.0,0.0
19991.0,1.48
19992.0,3.3
19994.0,3.3
19996.0,3.3
19998.0,2.75
20000.0,1.07
20002.0,0.0
20004.0,0.0
20006.0,0.0
20008.0,0.0
20011.0,1.25
20013.0,3.3
20015.0,3.3
20017.0,3.3
20019.0,2.9
20021.0,0.95
20023.0,0.0
20025.0,0.0
20027.0,0.0
20029.0,0.0
20031.0,1.49
20033.0,3.3
20034.0,3.3
20036.0,3.3
20038.0,3.3
20040.0,2.46
20042.0,0.52
20044.0,0.0
20046.0,0.0
20048.0,0.78
20050.0,3.3
20052.0,3.3
20055.0,3.3
20057.0,3.3
20059.0,3.3
20061.0,3.29
20063.0,1.97
20065.0,0.13
20067.0,0.06
20069.0,0.99
20071.0,3.3
20073.0,3.3
20075.0,3.3
20076.0,3.3
20078.0,3.3
20080.0,3.3
20082.0,2.53
20084.0,0.79
20086.0,0.0
20088.0,0.0
20090.0,0.84
20092.0,2.76
20094.0,3.23
20097.0,2.62
20099.0,1.74
20101.0,0.12
20103.0,0.0
20105.0,0.0
20107.0,0.0
20109.0,0.09
20111.0,2.2
20113.0,3.3
