time,ch2
1.0,1.51
3.0,1.48
5.0,1.34
7.0,1.53
9.0,1.44
11.0,1.45
13.0,1.51
15.0,1.43
17.0,1.47
19.0,1.39
21.0,1.45
23.0,1.52
25.0,1.45
27.0,1.54
29.0,1.5
31.0,1.63
33.0,1.54
35.0,1.57
37.0,1.58
39.0,1.54
41.0,1.37
44.0,1.51
46.0,1.46
48.0,1.5
49.0,1.52
51.0,1.5
53.0,1.58
55.0,1.59
57.0,1.57
59.0,1.57
61.0,1.46
63.0,1.41
65.0,1.42
67.0,1.39
69.0,1.38
71.0,1.5
73.0,1.5
75.0,1.43
77.0,1.42
79.0,1.38
81.0,1.38
83.0,1.37
86.0,1.27
88.0,1.27
90.0,1.24
92.0,1.39
94.0,1.4
95.0,1.33
97.0,1.41
99.0,1.43
101.0,1.43
103.0,1.36
105.0,1.4
107.0,1.52
109.0,1.57
111.0,1.48
113.0,1.42
115.0,1.29
117.0,1.34
119.0,1.17
121.0,1.2
123.0,1.21
125.0,1.25
128.0,1.36
130.0,1.42
132.0,1.45
134.0,1.32
136.0,1.29
138.0,1.24
139.0,1.3
141.0,2.56
143.0,2.15
145.0,1.79
147.0,1.79
149.0,1.75
151.0,1.62
153.0,1.45
155.0,1.36
157.0,1.43
159.0,1.41
161.0,1.41
163.0,1.39
165.0,1.39
167.0,1.53
169.0,1.45
172.0,1.42
174.0,1.41
176.0,1.42
178.0,1.46
180.0,1.54
181.0,1.52
183.0,1.5
185.0,1.47
187.0,1.52
189.0,1.57
191.0,1.7
193.0,1.69
195.0,2.29
197.0,2.39
199.0,2.17
201.0,2.0
203.0,1.76
205.0,1.65
207.0,1.64
209.0,1.67
211.0,1.7
214.0,1.63
216.0,1.63
218.0,1.65
220.0,1.51
222.0,1.44
224.0,1.46
225.0,1.4
227.0,1.5
229.0,1.55
231.0,1.51
233.0,1.56
235.0,1.5
237.0,1.43
239.0,1.45
241.0,1.57
243.0,1.45
245.0,1.47
247.0,1.62
249.0,1.6
251.0,1.65
253.0,1.52
256.0,1.5
258.0,1.46
260.0,1.52
262.0,1.62
264.0,1.61
266.0,1.53
267.0,1.59
269.0,1.54
271.0,1.48
273.0,1.57
275.0,1.53
277.0,1.66
279.0,1.71
281.0,1.68
283.0,1.61
285.0,1.57
287.0,1.57
289.0,1.69
291.0,1.71
293.0,1.68
295.0,1.72
297.0,1.77
300.0,1.73
302.0,1.69
304.0,1.56
306.0,1.55
308.0,1.72
309.0,1.77
311.0,1.73
313.0,1.71
315.0,1.7
317.0,1.68
319.0,1.57
321.0,1.55
323.0,1.53
325.0,1.52
327.0,1.65
329.0,1.69
331.0,1.7
333.0,1.64
335.0,1.58
337.0,1.54
339.0,1.46
342.0,1.48
344.0,1.45
346.0,1.49
348.0,1.65
350.0,1.64
352.0,1.56
353.0,1.57
355.0,1.63
357.0,1.78
359.0,1.74
361.0,1.68
363.0,1.7
365.0,1.75
367.0,1.78
369.0,1.67
371.0,1.63
373.0,1.61
375.0,1.65
377.0,1.68
379.0,1.73
381.0,1.69
384.0,1.67
386.0,1.61
388.0,1.56
390.0,1.62
392.0,1.64
394.0,1.55
395.0,1.57
397.0,1.55
399.0,1.63
401.0,1.59
403.0,1.5
405.0,1.46
407.0,1.62
409.0,1.54
411.0,1.62
413.0,1.55
415.0,1.54
417.0,1.52
419.0,1.48
421.0,1.37
423.0,1.39
425.0,1.38
428.0,1.5
430.0,1.55
432.0,1.6
434.0,1.54
436.0,1.47
437.0,1.39
439.0,1.42
441.0,1.47
443.0,1.42
445.0,1.37
447.0,1.36
449.0,1.39
451.0,1.42
453.0,1.39
455.0,1.35
457.0,1.52
459.0,1.35
461.0,1.4
463.0,1.35
465.0,1.47
467.0,1.71
470.0,1.53
472.0,1.39
474.0,1.32
476.0,1.36
478.0,1.42
480.0,1.48
481.0,1.43
483.0,1.35
485.0,1.29
487.0,1.27
489.0,1.26
491.0,1.37
493.0,1.35
495.0,1.35
497.0,1.38
499.0,1.38
501.0,1.38
503.0,1.31
505.0,1.34
507.0,1.48
509.0,1.44
512.0,1.5
514.0,1.42
516.0,1.37
518.0,1.45
520.0,1.38
522.0,1.29
523.0,1.25
525.0,1.2
527.0,1.21
529.0,1.36
531.0,1.33
533.0,1.27
535.0,1.36
537.0,1.33
539.0,1.4
541.0,1.37
543.0,1.36
545.0,1.34
547.0,1.45
549.0,1.43
551.0,1.42
553.0,1.31
556.0,1.38
558.0,1.39
560.0,1.38
562.0,1.39
564.0,1.33
565.0,1.29
567.0,1.32
569.0,1.31
571.0,1.36
573.0,1.37
575.0,1.36
577.0,1.44
579.0,1.43
581.0,1.41
583.0,1.4
585.0,1.32
587.0,1.34
589.0,1.36
591.0,1.5
593.0,1.43
595.0,1.44
598.0,1.51
600.0,1.55
602.0,1.46
604.0,1.34
606.0,1.27
608.0,1.39
609.0,1.42
611.0,1.43
613.0,1.31
615.0,1.3
617.0,1.35
619.0,1.19
621.0,1.2
623.0,1.28
625.0,1.32
627.0,1.45
629.0,1.53
631.0,1.45
633.0,1.39
635.0,1.4
637.0,1.4
640.0,1.46
642.0,1.48
644.0,1.52
646.0,1.56
648.0,1.66
650.0,1.62
651.0,1.55
653.0,1.52
655.0,1.55
657.0,1.58
659.0,1.59
661.0,1.56
663.0,1.53
665.0,1.51
667.0,1.52
669.0,1.49
671.0,1.55
673.0,1.49
675.0,1.5
677.0,1.53
679.0,1.51
681.0,1.5
684.0,1.46
686.0,1.43
688.0,1.46
690.0,1.61
692.0,1.69
693.0,1.59
695.0,1.59
697.0,1.63
699.0,1.6
701.0,1.57
703.0,1.52
705.0,1.5
707.0,1.6
709.0,1.65
711.0,1.72
713.0,1.68
715.0,1.72
717.0,1.65
719.0,1.47
721.0,1.54
723.0,2.58
726.0,2.07
728.0,1.85
730.0,1.71
732.0,1.58
734.0,1.46
736.0,1.41
737.0,1.32
739.0,1.37
741.0,1.44
743.0,1.43
745.0,1.37
747.0,1.41
749.0,1.4
751.0,1.43
753.0,1.3
755.0,1.34
757.0,1.39
759.0,1.51
761.0,1.43
763.0,1.33
765.0,1.36
768.0,1.43
770.0,1.45
772.0,1.45
774.0,1.42
776.0,1.4
778.0,1.35
779.0,1.46
781.0,1.44
783.0,1.4
785.0,1.4
787.0,1.44
789.0,1.57
791.0,1.58
793.0,1.48
795.0,1.51
797.0,1.49
799.0,1.44
801.0,1.4
803.0,1.38
805.0,1.45
807.0,1.59
809.0,1.62
812.0,1.55
814.0,1.49
816.0,1.57
818.0,1.55
820.0,1.45
821.0,1.46
823.0,1.45
825.0,1.49
827.0,1.52
829.0,1.5
831.0,1.52
833.0,1.46
835.0,1.41
837.0,1.5
839.0,1.47
841.0,1.54
843.0,1.5
845.0,1.49
847.0,1.54
849.0,1.62
851.0,1.57
854.0,1.46
856.0,1.53
858.0,1.62
860.0,1.59
862.0,1.6
864.0,1.54
865.0,1.53
867.0,1.62
869.0,1.54
871.0,1.49
873.0,1.49
875.0,1.48
877.0,1.51
879.0,1.55
881.0,1.48
883.0,1.35
885.0,1.32
887.0,1.32
889.0,1.39
891.0,1.53
893.0,1.44
896.0,1.42
898.0,1.51
900.0,1.51
902.0,1.44
904.0,1.4
906.0,1.39
907.0,1.5
909.0,1.49
911.0,1.58
913.0,1.48
915.0,1.57
917.0,1.64
919.0,1.49
921.0,1.39
923.0,1.38
925.0,1.43
927.0,1.5
929.0,1.46
931.0,1.42
933.0,1.36
935.0,1.37
937.0,1.4
940.0,1.42
942.0,1.49
944.0,1.42
946.0,1.41
948.0,1.45
950.0,1.55
951.0,1.52
953.0,1.42
955.0,1.49
957.0,1.49
959.0,1.56
961.0,1.52
963.0,1.38
965.0,1.44
967.0,1.53
969.0,1.51
971.0,1.49
973.0,1.45
975.0,1.48
977.0,1.53
979.0,1.5
982.0,1.48
984.0,1.41
986.0,1.43
988.0,1.39
990.0,1.44
992.0,1.42
993.0,1.3
995.0,1.31
997.0,1.38
999.0,1.46
1001.0,1.41
1003.0,1.35
1005.0,1.44
1007.0,1.46
1009.0,1.47
1011.0,1.51
1013.0,1.36
1015.0,1.45
1017.0,1.52
1019.0,1.38
1021.0,1.38
1024.0,1.29
1026.0,1.26
1028.0,1.32
1030.0,1.23
1032.0,1.29
1034.0,1.27
1036.0,1.35
1037.0,1.3
1039.0,1.39
1041.0,1.42
1043.0,1.4
1045.0,1.35
1047.0,1.47
1049.0,1.47
1051.0,1.4
1053.0,1.4
1055.0,1.39
1057.0,1.47
1059.0,2.19
1061.0,1.92
1063.0,1.6
1065.0,1.49
1068.0,1.44
1070.0,1.43
1072.0,1.51
1074.0,1.48
1076.0,1.37
1078.0,1.44
1079.0,1.41
1081.0,1.44
1083.0,1.4
1085.0,1.36
1087.0,1.37
1089.0,1.45
1091.0,1.58
1093.0,1.47
1095.0,1.54
1097.0,1.59
1099.0,1.56
1101.0,1.45
1103.0,1.41
1105.0,1.39
1107.0,1.42
1110.0,1.45
1112.0,1.41
1114.0,1.35
1116.0,1.43
1118.0,1.32
1120.0,1.28
1122.0,1.17
1123.0,1.09
1125.0,1.05
1127.0,1.12
1129.0,1.19
1131.0,1.27
1133.0,1.12
1135.0,1.12
1137.0,1.17
1139.0,1.29
1141.0,1.29
1143.0,1.32
1145.0,1.35
1147.0,1.42
1149.0,1.36
1152.0,1.38
1154.0,1.29
1156.0,1.37
1158.0,1.45
1160.0,1.44
1162.0,1.35
1164.0,1.3
1165.0,1.36
1167.0,1.42
1169.0,2.09
1171.0,2.1
1173.0,1.7
1175.0,1.56
1177.0,1.49
1179.0,1.38
1181.0,1.31
1183.0,1.21
1185.0,1.23
1187.0,1.26
1189.0,1.44
1191.0,1.34
1193.0,1.26
1196.0,1.32
1198.0,1.31
1200.0,1.34
1202.0,1.3
1204.0,1.21
1206.0,1.34
1208.0,1.37
1209.0,1.43
1211.0,1.14
1213.0,1.02
1215.0,1.11
1217.0,1.15
1219.0,1.18
1221.0,1.19
1223.0,1.24
1225.0,1.4
1227.0,1.38
1229.0,1.42
1231.0,1.46
1233.0,1.4
1235.0,1.46
1238.0,1.49
1240.0,1.55
1242.0,1.63
1244.0,1.55
1246.0,1.56
1248.0,1.61
1250.0,1.72
1251.0,1.67
1253.0,1.58
1255.0,1.68
1257.0,1.8
1259.0,1.71
1261.0,1.78
1263.0,1.7
1265.0,1.75
1267.0,1.83
1269.0,1.72
1271.0,1.67
1273.0,1.55
1275.0,1.6
1277.0,1.61
1280.0,1.69
1282.0,1.7
1284.0,1.56
1286.0,1.52
1288.0,1.56
1290.0,1.55
1292.0,1.63
1294.0,1.52
1295.0,1.53
1297.0,1.54
1299.0,1.59
1301.0,1.34
1303.0,1.29
1305.0,1.33
1307.0,1.44
1309.0,1.46
1311.0,1.51
1313.0,1.43
1315.0,1.48
1317.0,1.52
1319.0,1.44
1321.0,1.47
1324.0,1.47
1326.0,1.6
1328.0,1.66
1330.0,1.66
1332.0,1.66
1334.0,1.56
1336.0,1.56
1337.0,1.48
1339.0,1.51
1341.0,1.55
1343.0,1.41
1345.0,1.42
1347.0,1.56
1349.0,1.77
1351.0,1.79
1353.0,1.72
1355.0,1.84
1357.0,1.87
1359.0,1.78
1361.0,1.79
1363.0,1.64
1366.0,1.68
1368.0,1.72
1370.0,1.68
1372.0,1.61
1374.0,1.55
1376.0,1.66
1378.0,1.62
1380.0,1.64
1381.0,1.62
1383.0,1.52
1385.0,1.6
1387.0,1.7
1389.0,1.76
1391.0,1.76
1393.0,1.64
1395.0,1.63
1397.0,1.63
1399.0,1.62
1401.0,1.55
1403.0,1.55
1405.0,1.71
1408.0,1.6
1410.0,1.58
1412.0,1.57
1414.0,1.39
1416.0,1.4
1418.0,1.3
1420.0,1.32
1422.0,1.4
1423.0,1.25
1425.0,1.26
1427.0,1.15
1429.0,1.14
1431.0,1.26
1433.0,1.28
1435.0,1.27
1437.0,1.31
1439.0,1.5
1441.0,1.58
1443.0,1.38
1445.0,1.36
1447.0,1.44
1449.0,1.39
1452.0,1.32
1454.0,1.22
1456.0,1.32
1458.0,1.35
1460.0,1.45
1462.0,1.49
1464.0,1.51
1466.0,1.71
1467.0,1.68
1469.0,1.51
1471.0,1.46
1473.0,1.45
1475.0,1.64
1477.0,1.76
1479.0,1.69
1481.0,1.6
1483.0,1.51
1485.0,1.55
1487.0,1.55
1489.0,1.67
1491.0,1.72
1494.0,1.61
1496.0,1.74
1498.0,1.76
1500.0,1.88
1502.0,1.91
1504.0,1.81
1506.0,1.91
1508.0,2.01
1509.0,1.85
1511.0,1.76
1513.0,1.69
1515.0,1.77
1517.0,1.64
1519.0,1.61
1521.0,1.63
1523.0,1.49
1525.0,1.47
1527.0,1.48
1529.0,1.36
1531.0,1.32
1533.0,1.32
1536.0,1.46
1538.0,1.49
1540.0,1.51
1542.0,1.46
1544.0,1.54
1546.0,1.64
1548.0,1.64
1550.0,1.64
1552.0,1.67
1553.0,1.69
1555.0,1.74
1557.0,1.76
1559.0,1.8
1561.0,1.72
1563.0,1.62
1565.0,1.71
1567.0,1.65
1569.0,1.65
1571.0,1.71
1573.0,1.61
1575.0,1.76
1577.0,1.84
1580.0,1.8
1582.0,1.73
1584.0,1.6
1586.0,1.63
1588.0,1.7
1590.0,1.75
1592.0,1.74
1594.0,1.59
1595.0,1.66
1597.0,1.44
1599.0,1.4
1601.0,1.35
1603.0,1.24
1605.0,1.33
1607.0,1.41
1609.0,1.4
1611.0,1.47
1613.0,1.34
1615.0,1.35
1617.0,1.35
1619.0,1.35
1622.0,1.3
1624.0,1.25
1626.0,1.33
1628.0,1.32
1630.0,1.38
1632.0,1.35
1634.0,1.21
1636.0,1.17
1638.0,1.24
1639.0,1.28
1641.0,1.23
1643.0,1.19
1645.0,1.26
1647.0,1.26
1649.0,1.31
1651.0,1.3
1653.0,1.26
1655.0,1.35
1657.0,1.26
1659.0,1.33
1661.0,1.29
1664.0,1.21
1666.0,1.31
1668.0,1.31
1670.0,1.23
1672.0,1.2
1674.0,1.18
1676.0,1.32
1678.0,1.34
1680.0,1.38
1681.0,1.35
1683.0,1.21
1685.0,1.23
1687.0,1.26
1689.0,1.33
1691.0,1.43
1693.0,1.33
1695.0,1.47
1697.0,1.56
1699.0,3.17
1701.0,3.3
1703.0,2.68
1705.0,2.38
1708.0,2.06
1710.0,1.83
1712.0,1.75
1714.0,1.6
1716.0,1.62
1718.0,1.49
1720.0,1.45
1722.0,1.36
1724.0,1.3
1725.0,1.46
1727.0,1.55
1729.0,1.61
1731.0,1.56
1733.0,1.41
1735.0,1.38
1737.0,1.36
1739.0,1.37
1741.0,1.41
1743.0,1.26
1745.0,1.3
1747.0,1.44
1750.0,1.5
1752.0,1.37
1754.0,1.34
1756.0,1.36
1758.0,1.38
1760.0,1.45
1762.0,1.41
1764.0,1.3
1766.0,1.39
1768.0,1.35
1769.0,1.29
1771.0,1.31
1773.0,1.25
1775.0,1.3
1777.0,1.33
1779.0,1.33
1781.0,1.32
1783.0,1.27
1785.0,1.34
1787.0,1.37
1789.0,1.4
1792.0,1.35
1794.0,1.24
1796.0,1.26
1798.0,1.23
1800.0,1.11
1802.0,1.06
1804.0,0.93
1806.0,0.99
1808.0,1.03
1810.0,1.02
1811.0,0.94
1813.0,0.84
1815.0,1.04
1817.0,0.92
1819.0,0.89
1821.0,1.01
1823.0,0.91
1825.0,0.89
1827.0,0.98
1829.0,1.02
1831.0,0.95
1833.0,0.92
1836.0,0.95
1838.0,0.93
1840.0,1.01
1842.0,0.91
1844.0,0.85
1846.0,0.99
1848.0,1.02
1850.0,0.97
1852.0,0.96
1854.0,1.0
1855.0,1.13
1857.0,1.11
1859.0,1.21
1861.0,1.16
1863.0,1.14
1865.0,1.3
1867.0,1.34
1869.0,1.27
1871.0,1.32
1873.0,1.31
1875.0,1.49
1878.0,1.51
1880.0,1.48
1882.0,1.43
1884.0,1.31
1886.0,1.28
1888.0,1.29
1890.0,1.41
1892.0,1.35
1894.0,1.25
1896.0,1.33
1897.0,1.25
1899.0,1.18
1901.0,1.11
1903.0,1.02
1905.0,1.08
1907.0,1.16
1909.0,1.15
1911.0,1.01
1913.0,0.92
1915.0,0.96
1917.0,0.9
1920.0,0.94
1922.0,0.95
1924.0,0.9
1926.0,1.02
1928.0,1.1
1930.0,1.2
1932.0,1.38
1934.0,1.42
1936.0,1.4
1938.0,1.51
1940.0,1.5
1941.0,1.45
1943.0,1.23
1945.0,1.21
1947.0,1.15
1949.0,1.12
1951.0,1.09
1953.0,1.11
1955.0,1.16
1957.0,1.35
1959.0,1.44
1961.0,1.4
1964.0,1.36
1966.0,1.52
1968.0,1.53
1970.0,1.53
1972.0,1.64
1974.0,1.61
1976.0,1.74
1978.0,1.8
1980.0,1.82
1982.0,1.82
1983.0,1.68
1985.0,1.71
1987.0,1.79
1989.0,1.93
1991.0,1.89
1993.0,1.74
1995.0,1.79
1997.0,1.84
1999.0,1.83
2001.0,1.75
2003.0,1.65
2006.0,1.81
2008.0,1.91
2010.0,1.83
2012.0,1.79
2014.0,1.65
2016.0,1.68
2018.0,1.61
2020.0,1.68
2022.0,1.51
2024.0,1.27
2026.0,1.32
2027.0,1.27
2029.0,1.21
2031.0,1.14
2033.0,1.03
2035.0,0.97
2037.0,1.01
2039.0,0.98
2041.0,0.94
2043.0,0.8
2045.0,0.75
2048.0,0.67
2050.0,0.67
2052.0,0.61
2054.0,0.63
2056.0,0.72
2058.0,0.76
2060.0,0.78
2062.0,0.8
2064.0,0.66
2066.0,0.45
2068.0,0.07
2069.0,0.0
2071.0,0.0
2073.0,0.0
2075.0,0.0
2077.0,0.04
2079.0,0.19
2081.0,0.31
2083.0,0.35
2085.0,0.47
2087.0,0.68
2089.0,0.79
2092.0,0.86
2094.0,0.91
2096.0,1.05
2098.0,1.12
2100.0,1.1
2102.0,1.19
2104.0,1.27
2106.0,1.51
2108.0,1.57
2110.0,1.66
2112.0,1.67
2113.0,1.69
2115.0,1.75
2117.0,1.75
2119.0,1.79
2121.0,1.85
2123.0,1.81
2125.0,1.9
2127.0,1.91
2129.0,1.98
2131.0,1.86
2134.0,1.85
2136.0,1.92
2138.0,1.98
2140.0,2.01
2142.0,2.0
2144.0,1.96
2146.0,2.02
2148.0,2.17
2150.0,2.24
2152.0,2.11
2154.0,2.13
2155.0,2.27
2157.0,2.18
2159.0,2.24
2161.0,2.06
2163.0,1.99
2165.0,2.12
2167.0,2.05
2169.0,1.99
2171.0,1.97
2173.0,1.93
2176.0,1.96
2178.0,1.95
2180.0,1.94
2182.0,1.88
2184.0,1.75
2186.0,1.73
2188.0,1.86
2190.0,1.87
2192.0,1.88
2194.0,1.8
2196.0,1.79
2198.0,1.75
2199.0,1.63
2201.0,1.53
2203.0,1.49
2205.0,1.58
2207.0,1.65
2209.0,1.7
2211.0,1.65
2213.0,1.57
2215.0,1.61
2217.0,1.55
2220.0,1.63
2222.0,1.66
2224.0,1.69
2226.0,1.76
2228.0,1.79
2230.0,1.83
2232.0,1.84
2234.0,1.78
2236.0,1.81
2238.0,1.82
2240.0,1.85
2242.0,1.77
2243.0,1.7
2245.0,1.76
2247.0,1.81
2249.0,1.78
2251.0,1.7
2253.0,1.72
2255.0,1.81
2257.0,1.76
2259.0,3.0
2262.0,3.05
2264.0,2.51
2266.0,2.29
2268.0,2.12
2270.0,2.09
2272.0,2.06
2274.0,1.97
2276.0,1.89
2278.0,1.85
2280.0,1.83
2282.0,1.65
2284.0,1.48
2285.0,1.53
2287.0,1.56
2289.0,1.56
2291.0,1.58
2293.0,1.5
2295.0,1.57
2297.0,1.53
2299.0,1.5
2301.0,1.49
2304.0,1.48
2306.0,1.5
2308.0,1.53
2310.0,1.62
2312.0,1.57
2314.0,1.55
2316.0,1.7
2318.0,1.52
2320.0,1.43
2322.0,1.49
2324.0,1.47
2326.0,1.6
2327.0,1.68
2329.0,1.61
2331.0,1.53
2333.0,1.5
2335.0,1.54
2337.0,1.57
2339.0,1.56
2341.0,1.61
2343.0,1.57
2345.0,1.58
2348.0,1.64
2350.0,1.72
2352.0,1.65
2354.0,1.68
2356.0,1.72
2358.0,1.65
2360.0,1.67
2362.0,1.66
2364.0,1.69
2366.0,1.67
2368.0,1.69
2370.0,1.73
2371.0,1.71
2373.0,1.7
2375.0,1.74
2377.0,1.75
2379.0,1.74
2381.0,1.65
2383.0,1.55
2385.0,1.5
2387.0,1.63
2390.0,1.62
2392.0,1.56
2394.0,1.59
2396.0,1.71
2398.0,1.68
2400.0,1.72
2402.0,1.66
2404.0,1.63
2406.0,1.61
2408.0,1.64
2410.0,1.67
2412.0,1.6
2413.0,1.57
2415.0,1.55
2417.0,1.54
2419.0,1.57
2421.0,1.57
2423.0,1.61
2425.0,1.69
2427.0,1.74
2429.0,1.81
2432.0,1.7
2434.0,1.64
2436.0,1.65
2438.0,1.79
2440.0,1.83
2442.0,1.73
2444.0,1.66
2446.0,1.69
2448.0,1.72
2450.0,1.67
2452.0,1.64
2454.0,1.7
2456.0,1.63
2457.0,1.66
2459.0,1.64
2461.0,1.59
2463.0,1.5
2465.0,1.54
2467.0,1.59
2469.0,1.57
2471.0,1.5
2473.0,1.51
2476.0,1.57
2478.0,1.52
2480.0,1.54
2482.0,1.5
2484.0,1.44
2486.0,1.38
2488.0,2.59
2490.0,2.22
2492.0,3.3
2494.0,3.3
2496.0,2.82
2498.0,2.31
2499.0,1.95
2501.0,1.66
2503.0,1.48
2505.0,1.46
2507.0,1.3
2509.0,1.26
2511.0,1.16
2513.0,1.11
2515.0,1.06
2518.0,1.09
2520.0,0.98
2522.0,0.93
2524.0,0.89
2526.0,1.05
2528.0,1.13
2530.0,1.21
2532.0,1.14
2534.0,1.09
2536.0,1.12
2538.0,1.18
2540.0,1.18
2542.0,1.25
2543.0,1.24
2545.0,1.31
2547.0,1.34
2549.0,1.34
2551.0,1.31
2553.0,1.37
2555.0,1.44
2557.0,1.45
2560.0,1.46
2562.0,1.39
2564.0,1.37
2566.0,1.36
2568.0,1.37
2570.0,1.45
2572.0,1.49
2574.0,1.52
2576.0,1.5
2578.0,1.56
2580.0,1.54
2582.0,1.48
2584.0,1.46
2586.0,1.42
2587.0,1.52
2589.0,1.48
2591.0,1.4
2593.0,1.41
2595.0,1.5
2597.0,1.49
2599.0,1.44
2601.0,1.39
2604.0,1.47
2606.0,1.47
2608.0,1.5
2610.0,1.51
2612.0,1.51
2614.0,1.52
2616.0,1.52
2618.0,1.45
2620.0,1.45
2622.0,1.45
2624.0,1.44
2626.0,1.46
2628.0,1.47
2629.0,1.49
2631.0,1.38
2633.0,1.41
2635.0,1.39
2637.0,1.49
2639.0,1.45
2641.0,1.43
2643.0,1.43
2646.0,1.47
2648.0,1.53
2650.0,1.45
2652.0,1.4
2654.0,1.46
2656.0,1.48
2658.0,1.52
2660.0,1.51
2662.0,1.44
2664.0,1.47
2666.0,1.49
2668.0,1.46
2670.0,1.52
2672.0,1.51
2673.0,1.51
2675.0,1.53
2677.0,1.51
2679.0,1.48
2681.0,1.4
2683.0,1.38
2685.0,1.34
2688.0,1.42
2690.0,1.54
2692.0,1.51
2694.0,1.55
2696.0,1.54
2698.0,1.57
2700.0,1.5
2702.0,1.43
2704.0,1.48
2706.0,1.47
2708.0,1.56
2710.0,1.64
2712.0,1.58
2714.0,1.64
2715.0,1.65
2717.0,1.66
2719.0,1.66
2721.0,1.59
2723.0,1.65
2725.0,1.71
2727.0,1.76
2729.0,1.77
2732.0,1.69
2734.0,1.68
2736.0,1.67
2738.0,1.67
2740.0,1.71
2742.0,1.61
2744.0,1.67
2746.0,1.78
2748.0,1.81
2750.0,1.69
2752.0,1.67
2754.0,1.67
2756.0,1.7
2758.0,1.73
2759.0,1.64
2761.0,1.57
2763.0,1.6
2765.0,1.65
2767.0,1.61
2769.0,1.63
2771.0,1.6
2774.0,1.61
2776.0,1.66
2778.0,1.72
2780.0,1.68
2782.0,1.57
2784.0,1.51
2786.0,1.53
2788.0,1.57
2790.0,1.6
2792.0,1.56
2794.0,1.6
2796.0,1.66
2798.0,1.52
2800.0,1.5
2801.0,1.42
2803.0,1.51
2805.0,1.55
2807.0,1.52
2809.0,1.5
2811.0,1.37
2813.0,1.41
2816.0,1.4
2818.0,1.36
2820.0,1.36
2822.0,1.29
2824.0,1.32
2826.0,1.38
2828.0,1.38
2830.0,1.41
2832.0,1.35
2834.0,1.41
2836.0,1.38
2838.0,1.45
2840.0,1.45
2842.0,1.36
2844.0,1.45
2845.0,1.51
2847.0,1.54
2849.0,1.78
2851.0,1.79
2853.0,1.84
2855.0,1.74
2857.0,1.88
2860.0,1.9
2862.0,1.75
2864.0,1.72
2866.0,1.7
2868.0,1.75
2870.0,1.81
2872.0,1.78
2874.0,1.86
2876.0,1.85
2878.0,1.71
2880.0,1.75
2882.0,1.56
2884.0,3.3
2886.0,3.15
2887.0,2.82
2889.0,2.46
2891.0,2.2
2893.0,2.2
2895.0,2.07
2897.0,2.01
2899.0,1.89
2902.0,1.77
2904.0,1.84
2906.0,1.83
2908.0,1.94
2910.0,1.92
2912.0,1.85
2914.0,1.82
2916.0,1.72
2918.0,1.77
2920.0,1.78
2922.0,1.75
2924.0,1.9
2926.0,1.97
2928.0,1.88
2930.0,1.82
2931.0,1.81
2933.0,1.72
2935.0,1.66
2937.0,1.62
2939.0,1.56
2941.0,1.51
2944.0,1.52
2946.0,1.65
2948.0,1.88
2950.0,1.81
2952.0,1.67
2954.0,1.72
2956.0,1.71
2958.0,1.75
2960.0,1.65
2962.0,1.48
2964.0,1.7
2966.0,1.99
2968.0,2.1
2970.0,2.13
2972.0,1.91
2973.0,2.0
2975.0,2.11
2977.0,2.1
2979.0,2.1
2981.0,1.88
2983.0,1.85
2985.0,1.79
2988.0,1.88
2990.0,1.93
2992.0,1.7
2994.0,1.54
2996.0,1.45
2998.0,1.65
3000.0,1.67
3002.0,1.53
3004.0,1.42
3006.0,1.53
3008.0,1.62
3010.0,1.68
3012.0,1.43
3014.0,1.37
3016.0,1.22
3017.0,1.17
3019.0,1.15
3021.0,1.07
3023.0,1.12
3025.0,1.17
3027.0,1.28
3030.0,1.22
3032.0,1.03
3034.0,0.85
3036.0,0.81
3038.0,0.99
3040.0,1.08
3042.0,0.95
3044.0,1.04
3046.0,1.28
3048.0,1.25
3050.0,1.21
3052.0,1.04
3054.0,1.05
3056.0,0.89
3058.0,0.96
3060.0,0.87
3061.0,0.75
3063.0,0.72
3065.0,0.74
3067.0,0.93
3069.0,1.03
3072.0,0.9
3074.0,0.94
3076.0,1.0
3078.0,0.9
3080.0,0.77
3082.0,0.73
3084.0,0.71
3086.0,0.76
3088.0,0.79
3090.0,0.84
3092.0,0.66
3094.0,0.75
3096.0,0.7
3098.0,0.59
3100.0,0.53
3102.0,0.49
3104.0,0.57
3105.0,0.61
3107.0,0.7
3109.0,0.69
3111.0,0.6
3113.0,0.65
3116.0,0.52
3118.0,0.43
3120.0,0.45
3122.0,0.28
3124.0,0.27
3126.0,0.37
3128.0,0.47
3130.0,0.56
3132.0,0.54
3134.0,0.6
3136.0,0.6
3138.0,0.58
3140.0,0.55
3142.0,0.42
3144.0,0.48
3146.0,0.58
3148.0,0.71
3149.0,0.72
3151.0,0.56
3153.0,0.56
3155.0,0.64
3158.0,0.68
3160.0,0.79
3162.0,0.87
3164.0,0.84
3166.0,0.58
3168.0,0.57
3170.0,0.7
3172.0,0.56
3174.0,0.7
3176.0,0.71
3178.0,0.64
3180.0,0.65
3182.0,0.61
3184.0,0.68
3186.0,0.87
3188.0,1.18
3190.0,1.27
3192.0,1.17
3193.0,1.24
3195.0,1.3
3197.0,1.28
3200.0,1.22
3202.0,1.24
3204.0,1.32
3206.0,1.55
3208.0,1.57
3210.0,1.5
3212.0,1.54
3214.0,1.71
3216.0,1.61
3218.0,1.65
3220.0,1.61
3222.0,1.52
3224.0,1.52
3226.0,1.54
3228.0,1.68
3230.0,1.83
3232.0,1.77
3234.0,1.71
3235.0,1.75
3237.0,1.86
3239.0,1.74
3241.0,1.62
3244.0,1.67
3246.0,1.7
3248.0,1.78
3250.0,1.76
3252.0,1.68
3254.0,1.82
3256.0,1.81
3258.0,1.82
3260.0,1.85
3262.0,1.69
3264.0,1.73
3266.0,1.68
3268.0,1.64
3270.0,1.61
3272.0,1.55
3274.0,1.72
3276.0,1.67
3278.0,1.72
3279.0,1.65
3281.0,1.43
3283.0,1.45
3286.0,1.5
3288.0,1.65
3290.0,1.67
3292.0,1.61
3294.0,1.66
3296.0,1.63
3298.0,1.58
3300.0,1.46
3302.0,1.38
3304.0,1.55
3306.0,1.67
3308.0,1.67
3310.0,1.75
3312.0,1.65
3314.0,1.74
3316.0,1.79
3318.0,1.74
3320.0,1.66
3321.0,1.55
3323.0,1.67
3325.0,1.66
3328.0,1.69
3330.0,1.73
3332.0,1.64
3334.0,1.68
3336.0,1.73
3338.0,1.73
3340.0,1.67
3342.0,1.56
3344.0,1.55
3346.0,1.58
3348.0,1.49
3350.0,1.42
3352.0,1.33
3354.0,1.24
3356.0,1.12
3358.0,1.15
3360.0,1.14
3362.0,0.91
3364.0,0.83
3365.0,0.71
3367.0,0.57
3369.0,0.53
3372.0,0.39
3374.0,0.51
3376.0,0.48
3378.0,0.47
3380.0,0.35
3382.0,0.36
3384.0,0.36
3386.0,0.31
3388.0,0.32
3390.0,0.53
3392.0,0.44
3394.0,0.48
3396.0,0.69
3398.0,0.75
3400.0,0.7
3402.0,0.61
3404.0,0.75
3406.0,0.95
3407.0,1.1
3409.0,1.38
3411.0,1.28
3414.0,1.44
3416.0,1.38
3418.0,1.45
3420.0,1.58
3422.0,1.5
3424.0,1.61
3426.0,1.69
3428.0,1.75
3430.0,1.8
3432.0,1.75
3434.0,1.82
3436.0,1.78
3438.0,1.82
3440.0,1.86
3442.0,1.8
3444.0,1.87
3446.0,1.98
3448.0,2.03
3450.0,2.0
3451.0,1.9
3453.0,1.93
3456.0,1.93
3458.0,1.91
3460.0,1.85
3462.0,1.81
3464.0,1.93
3466.0,1.93
3468.0,2.02
3470.0,2.1
3472.0,1.94
3474.0,1.93
3476.0,2.01
3478.0,2.13
3480.0,2.05
3482.0,1.98
3484.0,1.99
3486.0,2.0
3488.0,2.05
3490.0,2.05
3492.0,1.92
3493.0,1.96
3495.0,1.96
3497.0,1.94
3500.0,1.88
3502.0,1.8
3504.0,1.89
3506.0,1.92
3508.0,2.06
3510.0,2.02
3512.0,1.91
3514.0,2.03
3516.0,1.94
3518.0,1.83
3520.0,1.88
3522.0,1.83
3524.0,1.91
3526.0,1.95
3528.0,1.96
3530.0,1.95
3532.0,1.89
3534.0,1.88
3536.0,1.91
3537.0,1.97
3539.0,1.87
3542.0,1.77
3544.0,1.97
3546.0,2.05
3548.0,1.96
3550.0,1.99
3552.0,1.95
3554.0,2.0
3556.0,2.08
3558.0,2.0
3560.0,1.95
3562.0,1.83
3564.0,1.87
3566.0,1.78
3568.0,1.79
3570.0,1.84
3572.0,1.81
3574.0,1.83
3576.0,1.78
3578.0,1.74
3579.0,1.72
3581.0,3.3
3584.0,3.3
3586.0,3.14
3588.0,2.66
3590.0,2.36
3592.0,2.12
3594.0,2.04
3596.0,1.84
3598.0,1.68
3600.0,1.54
3602.0,1.38
3604.0,1.38
3606.0,1.38
3608.0,1.35
3610.0,1.24
3612.0,1.11
3614.0,1.16
3616.0,1.08
3618.0,1.06
3620.0,1.09
3622.0,1.0
3623.0,1.05
3625.0,1.14
3628.0,1.15
3630.0,1.14
3632.0,1.08
3634.0,1.06
3636.0,1.13
3638.0,1.17
3640.0,1.16
3642.0,1.09
3644.0,1.14
3646.0,1.15
3648.0,1.19
3650.0,1.17
3652.0,1.17
3654.0,1.2
3656.0,1.32
3658.0,1.35
3660.0,1.34
3662.0,1.32
3664.0,1.44
3666.0,1.5
3667.0,1.58
3670.0,1.58
3672.0,1.43
3674.0,1.49
3676.0,1.44
3678.0,1.47
3680.0,1.43
3682.0,1.32
3684.0,1.28
3686.0,1.39
3688.0,1.49
3690.0,1.44
3692.0,1.4
3694.0,1.49
3696.0,1.56
3698.0,1.51
3700.0,1.43
3702.0,1.31
3704.0,1.41
3706.0,1.48
3708.0,1.39
3709.0,1.31
3712.0,1.27
3714.0,1.37
3716.0,1.26
3718.0,1.24
3720.0,1.28
3722.0,1.23
3724.0,1.35
3726.0,1.34
3728.0,1.37
3730.0,1.35
3732.0,1.33
3734.0,1.32
3736.0,1.43
3738.0,1.43
3740.0,1.32
3742.0,1.21
3744.0,1.31
3746.0,1.37
3748.0,1.34
3750.0,1.27
3752.0,1.15
3753.0,1.31
3756.0,1.24
3758.0,1.25
3760.0,1.16
3762.0,1.11
3764.0,1.22
3766.0,1.18
3768.0,1.19
3770.0,1.23
3772.0,1.2
3774.0,1.27
3776.0,1.3
3778.0,1.3
3780.0,1.26
3782.0,1.18
3784.0,1.2
3786.0,1.38
3788.0,1.4
3790.0,1.41
3792.0,1.32
3794.0,1.35
3795.0,1.4
3798.0,1.4
3800.0,1.28
3802.0,1.19
3804.0,1.27
3806.0,1.27
3808.0,1.36
3810.0,1.31
3812.0,1.3
3814.0,1.45
3816.0,1.45
3818.0,1.4
3820.0,1.43
3822.0,1.42
3824.0,1.41
3826.0,1.45
3828.0,1.57
3830.0,1.47
3832.0,1.39
3834.0,1.37
3836.0,1.42
3838.0,1.43
3840.0,1.39
3842.0,1.35
3844.0,1.39
3846.0,1.36
3848.0,1.32
3850.0,1.29
3852.0,1.35
3854.0,1.31
3856.0,1.36
3858.0,1.4
3860.0,1.3
3862.0,1.27
3864.0,1.28
3866.0,1.27
3868.0,1.29
3870.0,1.27
3872.0,1.29
3874.0,1.41
3876.0,1.44
3878.0,1.5
3880.0,1.47
3883.0,1.37
3884.0,1.4
3886.0,1.48
3888.0,1.7
3890.0,1.68
3892.0,1.6
3894.0,1.68
3896.0,1.64
3898.0,1.55
3900.0,1.53
3902.0,1.54
3904.0,1.63
3906.0,1.74
3908.0,1.85
3910.0,1.78
3912.0,1.8
3914.0,1.75
3916.0,1.7
3918.0,1.69
3920.0,1.68
3922.0,1.66
3924.0,1.73
3926.0,1.79
3928.0,1.75
3930.0,1.71
3932.0,1.65
3934.0,1.6
3936.0,1.61
3938.0,1.66
3940.0,1.61
3942.0,1.51
3944.0,1.6
3946.0,1.7
3948.0,1.62
3950.0,1.6
3952.0,1.49
3954.0,1.54
3956.0,1.52
3958.0,1.55
3960.0,1.55
3962.0,1.59
3964.0,1.75
3966.0,1.71
3969.0,1.77
3970.0,1.81
3972.0,1.75
3974.0,1.82
3976.0,1.87
3978.0,1.78
3980.0,1.71
3982.0,1.69
3984.0,1.7
3986.0,1.81
3988.0,1.84
3990.0,1.79
3992.0,1.84
3994.0,1.87
3996.0,1.85
3998.0,1.71
4000.0,1.71
4002.0,1.71
4004.0,1.83
4006.0,1.88
4008.0,1.95
4011.0,1.93
4013.0,1.95
4014.0,1.87
4016.0,1.76
4018.0,1.84
4020.0,1.82
4022.0,1.84
4024.0,1.92
4026.0,1.87
4028.0,1.82
4030.0,1.76
4032.0,1.73
4034.0,1.71
4036.0,1.81
4038.0,1.76
4040.0,1.64
4042.0,1.71
4044.0,1.74
4046.0,1.68
4048.0,1.64
4050.0,1.64
4052.0,1.71
4055.0,1.79
4056.0,1.91
4058.0,1.84
4060.0,1.75
4062.0,1.76
4064.0,1.7
4066.0,1.65
4068.0,1.77
4070.0,1.9
4072.0,1.97
4074.0,1.94
4076.0,1.83
4078.0,1.77
4080.0,1.65
4082.0,1.53
4084.0,1.62
4086.0,1.75
4088.0,1.73
4090.0,1.68
4092.0,1.75
4094.0,1.71
4097.0,1.85
4099.0,1.8
4100.0,1.69
4102.0,1.76
4104.0,1.81
4106.0,1.85
4108.0,1.76
4110.0,1.63
4112.0,1.6
4114.0,1.53
4116.0,1.49
4118.0,1.52
4120.0,1.41
4122.0,1.37
4124.0,1.38
4126.0,1.27
4128.0,1.28
4130.0,1.17
4132.0,1.11
4134.0,1.18
4136.0,1.23
4139.0,1.14
4141.0,0.97
4142.0,0.92
4144.0,0.99
4146.0,1.04
4148.0,1.03
4150.0,0.9
4152.0,0.95
4154.0,1.13
4156.0,1.11
4158.0,1.07
4160.0,0.99
4162.0,1.0
4164.0,1.09
4166.0,1.07
4168.0,1.2
4170.0,1.25
4172.0,1.34
4174.0,2.19
4176.0,2.54
4178.0,2.02
4180.0,1.53
4183.0,1.3
4185.0,1.27
4186.0,1.32
4188.0,1.27
4190.0,1.17
4192.0,1.17
4194.0,1.23
4196.0,1.17
4198.0,1.03
4200.0,0.95
4202.0,1.02
4204.0,1.08
4206.0,1.06
4208.0,1.21
4210.0,1.25
4212.0,1.4
4214.0,1.37
4216.0,1.31
4218.0,1.27
4220.0,1.24
4222.0,1.25
4225.0,1.39
4227.0,1.5
4229.0,1.59
4230.0,1.48
4232.0,1.43
4234.0,1.43
4236.0,1.5
4238.0,1.57
4240.0,1.58
4242.0,1.48
4244.0,1.49
4246.0,1.5
4248.0,1.48
4250.0,1.48
4252.0,1.61
4254.0,1.58
4256.0,1.57
4258.0,1.55
4260.0,1.43
4262.0,1.45
4264.0,1.41
4267.0,1.45
4269.0,1.56
4271.0,1.56
4272.0,1.58
4274.0,1.61
4276.0,1.69
4278.0,1.69
4280.0,1.61
4282.0,1.51
4284.0,1.51
4286.0,1.56
4288.0,1.57
4290.0,1.51
4292.0,1.5
4294.0,1.54
4296.0,1.48
4298.0,1.41
4300.0,1.36
4302.0,1.4
4304.0,1.43
4306.0,1.53
4308.0,1.64
4311.0,1.43
4313.0,1.44
4315.0,1.38
4316.0,1.31
4318.0,1.33
4320.0,1.26
4322.0,1.32
4324.0,1.36
4326.0,1.44
4328.0,1.38
4330.0,1.31
4332.0,1.26
4334.0,1.27
4336.0,1.25
4338.0,1.36
4340.0,1.24
4342.0,1.29
4344.0,1.41
4346.0,1.42
4348.0,1.39
4350.0,1.35
4353.0,1.39
4355.0,1.32
4357.0,1.32
4358.0,1.28
4360.0,1.26
4362.0,1.3
4364.0,1.3
4366.0,1.22
4368.0,1.3
4370.0,1.18
4372.0,1.25
4374.0,1.25
4376.0,1.24
4378.0,1.23
4380.0,1.08
4382.0,1.06
4384.0,1.17
4386.0,1.31
4388.0,1.41
4390.0,1.3
4392.0,1.34
4395.0,1.39
4397.0,1.34
4399.0,1.17
4401.0,1.11
4402.0,1.19
4404.0,1.34
4406.0,1.38
4408.0,1.41
4410.0,1.41
4412.0,1.49
4414.0,1.49
4416.0,1.32
4418.0,1.22
4420.0,1.08
4422.0,1.01
4424.0,1.07
4426.0,1.01
4428.0,0.97
4430.0,0.89
4432.0,0.97
4434.0,1.05
4436.0,1.16
4439.0,1.21
4441.0,1.13
4443.0,1.21
4445.0,1.36
4446.0,1.41
4448.0,1.44
4450.0,1.35
4452.0,1.47
4454.0,1.53
4456.0,1.61
4458.0,1.58
4460.0,1.51
4462.0,1.67
4464.0,1.64
4466.0,1.7
4468.0,1.76
4470.0,1.68
4472.0,1.7
4474.0,1.78
4476.0,1.81
4478.0,1.85
4481.0,1.8
4483.0,1.85
4485.0,1.96
4487.0,2.03
4488.0,2.04
4490.0,1.96
4492.0,2.03
4494.0,2.03
4496.0,1.97
4498.0,1.91
4500.0,1.76
4502.0,1.78
4504.0,1.84
4506.0,1.82
4508.0,1.77
4510.0,1.72
4512.0,1.83
4514.0,1.73
4516.0,1.67
4518.0,1.63
4520.0,1.57
4523.0,1.58
4525.0,1.67
4527.0,1.6
4529.0,1.64
4531.0,1.57
4532.0,1.53
4534.0,1.54
4536.0,1.55
4538.0,1.51
4540.0,1.4
4542.0,1.54
4544.0,1.46
4546.0,1.56
4548.0,1.55
4550.0,1.45
4552.0,1.51
4554.0,1.46
4556.0,1.45
4558.0,1.47
4560.0,1.44
4562.0,1.49
4564.0,1.46
4567.0,1.46
4569.0,1.55
4571.0,1.46
4573.0,1.58
4574.0,1.58
4576.0,1.53
4578.0,1.5
4580.0,1.44
4582.0,1.44
4584.0,1.44
4586.0,1.47
4588.0,1.59
4590.0,1.54
4592.0,1.53
4594.0,1.54
4596.0,1.6
4598.0,1.51
4600.0,1.39
4602.0,1.51
4604.0,1.55
4606.0,1.56
4609.0,1.61
4611.0,1.49
4613.0,1.55
4615.0,1.48
4617.0,1.44
4618.0,1.44
4620.0,1.35
4622.0,1.45
4624.0,1.47
4626.0,1.55
4628.0,1.58
4630.0,1.49
4632.0,1.45
4634.0,1.43
4636.0,1.46
4638.0,1.56
4640.0,1.35
4642.0,1.34
4644.0,1.38
4646.0,1.46
4648.0,1.4
4651.0,1.42
4653.0,1.55
4655.0,1.54
4657.0,1.54
4659.0,1.54
4661.0,1.41
4662.0,1.52
4664.0,1.47
4666.0,1.49
4668.0,1.54
4670.0,1.45
4672.0,1.45
4674.0,1.46
4676.0,1.43
4678.0,1.43
4680.0,1.35
4682.0,1.31
4684.0,1.42
4686.0,1.54
4688.0,1.69
4690.0,1.59
4692.0,1.6
4695.0,1.65
4697.0,1.53
4699.0,1.43
4701.0,1.41
4703.0,1.45
4704.0,1.54
4706.0,1.59
4708.0,1.62
4710.0,1.49
4712.0,1.49
4714.0,1.39
4716.0,1.28
4718.0,1.34
4720.0,1.16
4722.0,1.22
4724.0,1.34
4726.0,1.33
4728.0,1.3
4730.0,1.17
4732.0,1.24
4734.0,1.18
4737.0,1.33
4739.0,1.35
4741.0,1.25
4743.0,1.28
4745.0,1.38
4747.0,1.34
4748.0,1.33
4750.0,1.33
4752.0,1.45
4754.0,1.45
4756.0,1.53
4758.0,1.52
4760.0,1.42
4762.0,1.56
4764.0,1.52
4766.0,1.49
4768.0,1.57
4770.0,1.49
4772.0,1.58
4774.0,1.6
4776.0,1.57
4779.0,1.51
4781.0,1.45
4783.0,1.54
4785.0,1.59
4787.0,1.72
4789.0,1.74
4791.0,1.6
4792.0,1.63
4794.0,1.64
4796.0,1.65
4798.0,1.51
4800.0,1.45
4802.0,1.55
4804.0,1.62
4806.0,1.78
4808.0,1.75
4810.0,1.66
4812.0,1.73
4814.0,1.56
4816.0,1.6
4818.0,1.71
4820.0,1.67
4823.0,1.7
4825.0,1.73
4827.0,1.75
4829.0,1.71
4831.0,1.53
4833.0,1.53
4834.0,1.59
4836.0,1.59
4838.0,1.54
4840.0,1.44
4842.0,1.49
4844.0,1.56
4846.0,1.42
4848.0,1.35
4850.0,1.18
4852.0,1.16
4854.0,1.21
4856.0,1.25
4858.0,1.2
4860.0,1.16
4862.0,1.25
4865.0,1.15
4867.0,1.17
4869.0,1.24
4871.0,1.18
4873.0,1.25
4875.0,1.22
4877.0,1.18
4878.0,1.14
4880.0,0.99
4882.0,0.95
4884.0,1.02
4886.0,1.09
4888.0,1.07
4890.0,0.91
4892.0,1.02
4894.0,1.0
4896.0,0.91
4898.0,0.83
4900.0,0.81
4902.0,0.94
4904.0,1.0
4907.0,0.99
4909.0,1.06
4911.0,1.08
4913.0,1.34
4915.0,1.31
4917.0,1.37
4919.0,1.45
4921.0,1.41
4922.0,1.59
4924.0,1.72
4926.0,1.74
4928.0,1.77
4930.0,1.64
4932.0,1.65
4934.0,1.85
4936.0,1.88
4938.0,2.02
4940.0,2.03
4942.0,2.15
4944.0,2.24
4946.0,2.27
4948.0,2.37
4951.0,2.35
4953.0,2.43
4955.0,2.41
4957.0,2.44
4959.0,2.45
4961.0,2.36
4963.0,2.42
4964.0,2.33
4966.0,2.41
4968.0,2.48
4970.0,2.32
4972.0,2.43
4974.0,2.33
4976.0,2.29
4978.0,2.16
4980.0,2.03
4982.0,2.06
4984.0,2.21
4986.0,2.14
4988.0,2.13
4990.0,2.07
4993.0,2.19
4995.0,2.07
4997.0,1.97
4999.0,1.85
5001.0,1.73
5003.0,1.87
5005.0,1.81
5007.0,1.8
5008.0,1.73
5010.0,1.58
5012.0,1.55
5014.0,1.57
5016.0,1.65
5018.0,1.72
5020.0,1.67
5022.0,1.82
5024.0,1.84
5026.0,1.91
5028.0,1.99
5030.0,1.92
5032.0,1.84
5035.0,1.81
5037.0,1.66
5039.0,1.53
5041.0,1.43
5043.0,1.42
5045.0,1.4
5047.0,1.49
5049.0,1.47
5051.0,1.47
5052.0,1.59
5054.0,1.7
5056.0,1.59
5058.0,1.53
5060.0,1.45
5062.0,1.43
5064.0,1.41
5066.0,1.38
5068.0,1.52
5070.0,1.5
5072.0,1.49
5074.0,1.51
5076.0,1.61
5079.0,1.6
5081.0,1.44
5083.0,1.37
5085.0,1.5
5087.0,1.39
5089.0,1.44
5091.0,1.35
5093.0,1.45
5095.0,1.45
5096.0,1.33
5098.0,1.28
5100.0,1.24
5102.0,1.38
5104.0,1.42
5106.0,1.41
5108.0,1.45
5110.0,1.34
5112.0,1.49
5114.0,1.43
5116.0,1.39
5118.0,1.36
5121.0,1.33
5123.0,1.44
5125.0,1.44
5127.0,1.52
5129.0,1.62
5131.0,1.55
5133.0,1.51
5135.0,1.49
5137.0,1.58
5139.0,1.37
5140.0,1.15
5142.0,1.21
5144.0,1.39
5146.0,1.24
5148.0,1.01
5150.0,0.97
5152.0,0.97
5154.0,0.9
5156.0,0.99
5158.0,0.85
5160.0,0.72
5163.0,0.83
5165.0,0.8
5167.0,0.77
5169.0,0.93
5171.0,0.84
5173.0,0.88
5175.0,0.9
5177.0,0.91
5179.0,0.88
5181.0,0.84
5183.0,0.93
5184.0,1.02
5186.0,1.17
5188.0,1.15
5190.0,1.1
5192.0,1.16
5194.0,1.18
5196.0,1.15
5198.0,1.15
5200.0,1.13
5202.0,1.31
5204.0,1.34
5207.0,1.43
5209.0,1.42
5211.0,1.38
5213.0,1.48
5215.0,1.34
5217.0,1.42
5219.0,1.64
5221.0,1.64
5223.0,1.69
5225.0,1.7
5226.0,1.78
5228.0,1.78
5230.0,1.72
5232.0,1.7
5234.0,1.67
5236.0,1.74
5238.0,1.69
5240.0,1.57
5242.0,1.64
5244.0,1.58
5246.0,1.56
5249.0,1.43
5251.0,1.46
5253.0,1.46
5255.0,1.52
5257.0,1.44
5259.0,1.3
5261.0,1.21
5263.0,1.26
5265.0,1.25
5267.0,1.33
5269.0,1.42
5270.0,1.44
5272.0,1.41
5274.0,1.42
5276.0,1.32
5278.0,1.27
5280.0,1.24
5282.0,1.29
5284.0,1.37
5286.0,1.42
5288.0,1.41
5291.0,1.31
5293.0,1.27
5295.0,1.2
5297.0,1.12
5299.0,0.97
5301.0,1.03
5303.0,1.07
5305.0,1.14
5307.0,1.27
5309.0,1.21
5311.0,1.27
5312.0,1.32
5314.0,1.26
5316.0,1.24
5318.0,1.22
5320.0,1.08
5322.0,1.14
5324.0,1.15
5326.0,1.15
5328.0,1.11
5330.0,1.08
5332.0,1.17
5335.0,1.26
5337.0,1.4
5339.0,1.37
5341.0,1.39
5343.0,1.53
5345.0,1.6
5347.0,1.45
5349.0,1.33
5351.0,1.25
5353.0,1.25
5355.0,1.26
5356.0,1.39
5358.0,1.45
5360.0,1.23
5362.0,1.2
5364.0,1.24
5366.0,1.19
5368.0,1.24
5370.0,1.27
5372.0,1.3
5374.0,1.17
5377.0,1.27
5379.0,1.25
5381.0,1.15
5383.0,1.11
5385.0,1.21
5387.0,1.3
5389.0,1.37
5391.0,1.39
5393.0,1.42
5395.0,1.52
5397.0,1.51
5399.0,1.49
5400.0,1.59
5402.0,1.72
5404.0,1.76
5406.0,1.76
5408.0,1.7
5410.0,1.69
5412.0,1.72
5414.0,1.61
5416.0,1.45
5419.0,1.35
5421.0,1.35
5423.0,1.46
5425.0,1.44
5427.0,1.49
5429.0,1.38
5431.0,1.28
5433.0,1.35
5435.0,1.39
5437.0,1.48
5439.0,1.51
5441.0,1.51
5443.0,1.57
5444.0,1.54
5446.0,1.49
5448.0,1.42
5450.0,1.43
5452.0,1.44
5454.0,1.44
5456.0,1.53
5458.0,1.47
5460.0,1.44
5463.0,1.43
5465.0,1.45
5467.0,1.49
5469.0,1.61
5471.0,1.71
5473.0,1.78
5475.0,1.67
5477.0,1.72
5479.0,1.67
5481.0,1.59
5483.0,1.54
5485.0,1.55
5486.0,1.61
5488.0,1.65
5490.0,1.63
5492.0,1.65
5494.0,1.6
5496.0,1.53
5498.0,1.49
5500.0,1.53
5502.0,1.4
5505.0,1.32
5507.0,1.24
5509.0,1.13
5511.0,1.07
5513.0,1.11
5515.0,1.06
5517.0,1.03
5519.0,1.05
5521.0,1.07
5523.0,1.2
5525.0,1.37
5527.0,1.38
5529.0,1.29
5530.0,1.16
5532.0,1.21
5534.0,1.4
5536.0,1.5
5538.0,1.48
5540.0,1.46
5542.0,1.54
5544.0,1.59
5547.0,1.63
5549.0,1.62
5551.0,1.75
5553.0,1.88
5555.0,1.93
5557.0,2.09
5559.0,1.98
5561.0,1.88
5563.0,1.86
5565.0,1.86
5567.0,1.82
5569.0,1.77
5571.0,1.75
5573.0,1.71
5574.0,1.76
5576.0,1.74
5578.0,1.68
5580.0,1.61
5582.0,1.59
5584.0,1.65
5586.0,1.75
5588.0,1.7
5591.0,1.64
5593.0,1.72
5595.0,1.71
5597.0,1.57
5599.0,1.44
5601.0,1.46
5603.0,1.44
5605.0,1.39
5607.0,1.43
5609.0,1.36
5611.0,1.35
5613.0,1.34
5615.0,1.23
5617.0,1.35
5618.0,1.33
5620.0,1.3
5622.0,1.31
5624.0,1.37
5626.0,1.43
5628.0,1.29
5630.0,1.19
5633.0,1.15
5635.0,1.23
5637.0,1.27
5639.0,1.2
5641.0,1.2
5643.0,1.35
5645.0,1.33
5647.0,1.29
5649.0,1.24
5651.0,1.3
5653.0,1.37
5655.0,1.4
5657.0,1.39
5659.0,1.39
5660.0,1.53
5662.0,1.48
5664.0,1.51
5666.0,1.66
5668.0,1.71
5670.0,1.69
5672.0,1.73
5675.0,1.71
5677.0,1.69
5679.0,1.61
5681.0,1.55
5683.0,1.62
5685.0,1.86
5687.0,1.83
5689.0,1.86
5691.0,1.91
5693.0,1.98
5695.0,1.82
5697.0,1.73
5699.0,1.7
5701.0,1.69
5703.0,1.79
5704.0,1.76
5706.0,1.8
5708.0,1.79
5710.0,1.88
5712.0,1.85
5714.0,1.86
5716.0,1.79
5719.0,1.72
5721.0,1.74
5723.0,1.74
5725.0,1.71
5727.0,1.74
5729.0,1.7
5731.0,1.73
5733.0,1.69
5735.0,1.8
5737.0,1.75
5739.0,1.64
5741.0,1.66
5743.0,1.72
5745.0,1.72
5747.0,1.61
5748.0,1.53
5750.0,1.55
5752.0,1.57
5754.0,1.51
5756.0,1.46
5758.0,1.41
5761.0,1.41
5763.0,1.32
5765.0,1.31
5767.0,1.4
5769.0,1.31
5771.0,1.32
5773.0,1.28
5775.0,1.24
5777.0,1.33
5779.0,1.27
5781.0,1.3
5783.0,1.41
5785.0,1.57
5787.0,1.51
5789.0,1.37
5791.0,1.41
5792.0,1.43
5794.0,1.52
5796.0,1.45
5798.0,1.4
5800.0,1.47
5803.0,1.68
5805.0,1.72
5807.0,1.68
5809.0,1.55
5811.0,1.61
5813.0,1.59
5815.0,1.52
5817.0,1.65
5819.0,1.61
5821.0,1.66
5823.0,1.7
5825.0,1.71
5827.0,1.82
5829.0,1.79
5831.0,1.83
5833.0,1.83
5834.0,1.8
5836.0,1.82
5838.0,1.81
5840.0,1.85
5842.0,1.97
5844.0,2.05
5847.0,1.94
5849.0,1.85
5851.0,1.85
5853.0,1.79
5855.0,1.68
5857.0,1.69
5859.0,1.56
5861.0,1.52
5863.0,1.48
5865.0,1.47
5867.0,1.54
5869.0,1.55
5871.0,1.64
5873.0,1.63
5875.0,1.69
5876.0,1.71
5878.0,1.65
5880.0,1.66
5882.0,1.7
5884.0,1.75
5886.0,1.72
5889.0,1.76
5891.0,1.91
5893.0,1.88
5895.0,1.89
5897.0,1.73
5899.0,1.63
5901.0,1.7
5903.0,1.63
5905.0,1.54
5907.0,1.59
5909.0,1.39
5911.0,1.36
5913.0,1.89
5915.0,1.5
5917.0,1.09
5919.0,1.01
5920.0,1.23
5922.0,1.15
5924.0,1.15
5926.0,1.26
5928.0,1.14
5931.0,1.25
5933.0,1.21
5935.0,1.2
5937.0,1.15
5939.0,1.04
5941.0,1.02
5943.0,1.03
5945.0,1.22
5947.0,1.24
5949.0,1.26
5951.0,1.44
5953.0,1.48
5955.0,1.38
5957.0,1.28
5959.0,1.05
5961.0,1.2
5962.0,1.16
5964.0,1.21
5966.0,1.34
5968.0,1.31
5970.0,1.35
5972.0,1.33
5975.0,1.27
5977.0,1.31
5979.0,1.25
5981.0,1.22
5983.0,1.19
5985.0,1.2
5987.0,1.11
5989.0,0.88
5991.0,0.82
5993.0,1.22
5995.0,1.5
5997.0,1.53
5999.0,1.48
6001.0,1.65
6003.0,1.66
6005.0,2.0
6006.0,2.6
6008.0,3.03
6010.0,3.17
6012.0,3.3
6014.0,3.3
6017.0,3.3
6019.0,3.3
6021.0,3.3
6023.0,3.3
6025.0,3.3
6027.0,3.3
6029.0,3.3
6031.0,3.3
6033.0,3.3
6035.0,3.3
6037.0,3.3
6039.0,3.3
6041.0,3.3
6043.0,3.3
6045.0,3.3
6047.0,3.3
6049.0,3.3
6050.0,3.3
6052.0,3.3
6054.0,3.3
6056.0,3.3
6059.0,3.3
6061.0,3.3
6063.0,3.3
6065.0,3.3
6067.0,3.3
6069.0,3.3
6071.0,3.3
6073.0,3.3
6075.0,3.3
6077.0,3.3
6079.0,3.3
6081.0,3.3
6083.0,3.3
6085.0,3.3
6087.0,3.3
6089.0,3.3
6091.0,3.3
6093.0,3.3
6094.0,3.3
6096.0,3.3
6098.0,3.3
6100.0,3.3
6103.0,3.3
6105.0,3.3
6107.0,3.3
6109.0,3.3
6111.0,3.3
6113.0,3.3
6115.0,3.3
6117.0,3.3
6119.0,3.3
6121.0,3.3
6123.0,3.3
6125.0,3.3
6127.0,3.3
6129.0,3.3
6131.0,3.3
6133.0,3.3
6135.0,3.3
6136.0,3.3
6138.0,3.3
6140.0,3.3
6142.0,3.3
6145.0,3.3
6147.0,3.3
6149.0,3.3
6151.0,3.3
6153.0,3.3
6155.0,3.3
6157.0,3.3
6159.0,3.3
6161.0,3.3
6163.0,3.3
6165.0,3.3
6167.0,3.3
6169.0,3.3
6171.0,3.3
6173.0,3.3
6175.0,3.3
6177.0,3.3
6179.0,3.3
6180.0,3.3
6182.0,3.3
6184.0,3.3
6187.0,3.3
6189.0,2.99
6191.0,2.87
6193.0,2.41
6195.0,2.1
6197.0,1.37
6199.0,0.67
6201.0,0.44
6203.0,0.35
6205.0,0.84
6207.0,0.45
6209.0,0.0
6211.0,0.0
6213.0,0.0
6215.0,0.0
6217.0,0.0
6219.0,0.0
6221.0,0.0
6223.0,0.0
6224.0,0.0
6226.0,0.0
6228.0,0.0
6231.0,0.0
6233.0,0.0
6235.0,0.0
6237.0,0.0
6239.0,0.0
6241.0,0.0
6243.0,0.0
6245.0,0.0
6247.0,0.0
6249.0,0.0
6251.0,0.0
6253.0,0.0
6255.0,0.0
6257.0,0.0
6259.0,0.0
6261.0,0.0
6263.0,0.0
6265.0,0.0
6267.0,0.0
6268.0,0.0
6270.0,0.0
6273.0,0.0
6275.0,0.0
6277.0,0.0
6279.0,0.0
6281.0,0.0
6283.0,0.0
6285.0,0.0
6287.0,0.0
6289.0,0.0
6291.0,0.0
6293.0,0.0
6295.0,0.0
6297.0,0.0
6299.0,0.0
6301.0,0.0
6303.0,0.0
6305.0,0.0
6307.0,0.0
6309.0,0.0
6310.0,0.0
6312.0,0.0
6315.0,0.0
6317.0,0.0
6319.0,0.0
6321.0,0.0
6323.0,0.0
6325.0,0.0
6327.0,0.0
6329.0,0.0
6331.0,0.0
6333.0,0.0
6335.0,0.0
6337.0,0.0
6339.0,0.0
6341.0,0.0
6343.0,0.0
6345.0,0.0
6347.0,0.0
6349.0,0.0
6351.0,0.0
6353.0,0.0
6355.0,0.0
6356.0,0.0
6359.0,0.0
6361.0,0.0
6363.0,0.0
6365.0,0.0
6367.0,0.0
6369.0,0.0
6371.0,0.0
6373.0,0.0
6375.0,0.0
6377.0,0.0
6379.0,0.0
6381.0,0.0
6383.0,0.0
6385.0,0.0
6387.0,0.0
6389.0,0.0
6391.0,0.0
6393.0,0.0
6395.0,0.0
6397.0,0.26
6400.0,0.25
6401.0,0.12
6403.0,0.0
6405.0,0.05
6407.0,0.0
6409.0,0.08
6411.0,0.15
6413.0,0.0
6415.0,0.0
6417.0,0.0
6419.0,0.0
6421.0,0.0
6423.0,0.03
6425.0,0.09
6427.0,0.05
6429.0,0.09
6431.0,0.21
6433.0,0.68
6435.0,0.76
6437.0,0.71
6439.0,0.58
6441.0,0.65
6443.0,0.81
6445.0,0.79
6447.0,0.83
6449.0,0.8
6451.0,0.85
6453.0,0.86
6455.0,0.69
6457.0,0.5
6459.0,0.41
6461.0,0.67
6463.0,0.75
6465.0,0.79
6467.0,0.87
6469.0,0.84
6471.0,0.73
6473.0,0.69
6475.0,0.64
6477.0,0.65
6479.0,0.68
6481.0,0.73
6483.0,0.91
6484.0,1.0
6487.0,1.04
6489.0,0.96
6491.0,0.99
6493.0,1.11
6495.0,1.06
6497.0,1.02
6499.0,1.01
6501.0,1.03
6503.0,1.0
6505.0,1.02
6507.0,0.9
6509.0,0.82
6511.0,0.83
6513.0,0.76
6515.0,0.86
6517.0,1.0
6519.0,0.94
6521.0,1.04
6523.0,1.14
6525.0,1.3
6528.0,1.31
6529.0,1.19
6531.0,1.14
6533.0,1.15
6535.0,1.21
6537.0,1.27
6539.0,1.15
6541.0,1.16
6543.0,1.12
6545.0,0.89
6547.0,0.89
6549.0,0.86
6551.0,0.93
6553.0,0.97
6555.0,0.99
6557.0,0.92
6559.0,1.01
6561.0,1.18
6563.0,1.11
6565.0,1.16
6567.0,1.15
6569.0,1.12
6571.0,1.2
6573.0,1.33
6575.0,1.3
6577.0,1.32
6579.0,1.29
6581.0,1.37
6583.0,1.5
6585.0,1.64
6587.0,1.63
6589.0,1.58
6591.0,1.72
6593.0,1.65
6595.0,1.55
6597.0,1.44
6599.0,1.45
6601.0,1.54
6603.0,1.56
6605.0,1.56
6607.0,1.55
6609.0,1.59
6611.0,1.68
6614.0,1.67
6615.0,1.63
6617.0,1.56
6619.0,1.47
6621.0,1.57
6623.0,1.54
6625.0,1.44
6627.0,1.36
6629.0,1.26
6631.0,1.2
6633.0,1.29
6635.0,1.33
6637.0,1.27
6639.0,1.2
6641.0,1.17
6643.0,1.25
6645.0,1.28
6647.0,1.33
6649.0,1.31
6651.0,1.35
6653.0,1.37
6656.0,1.27
6658.0,1.2
6659.0,1.22
6661.0,1.37
6663.0,1.54
6665.0,1.67
6667.0,1.71
6669.0,1.64
6671.0,1.6
6673.0,1.48
6675.0,1.08
6677.0,0.96
6679.0,0.85
6681.0,0.95
6683.0,1.13
6685.0,1.15
6687.0,1.13
6689.0,1.04
6691.0,1.04
6693.0,1.1
6695.0,1.1
6697.0,1.91
6700.0,1.41
6701.0,1.22
6703.0,1.09
6705.0,0.93
6707.0,0.83
6709.0,0.73
6711.0,0.65
6713.0,0.64
6715.0,0.7
6717.0,0.78
6719.0,0.76
6721.0,0.85
6723.0,0.92
6725.0,1.04
6727.0,1.01
6729.0,0.96
6731.0,0.99
6733.0,1.14
6735.0,1.15
6737.0,1.17
6739.0,1.16
6742.0,1.17
6744.0,1.28
6745.0,1.29
6747.0,1.22
6749.0,1.24
6751.0,1.35
6753.0,1.32
6755.0,1.29
6757.0,1.26
6759.0,1.22
6761.0,1.3
6763.0,1.28
6765.0,1.32
6767.0,1.37
6769.0,1.44
6771.0,1.45
6773.0,1.36
6775.0,1.37
6777.0,1.33
6779.0,1.34
6781.0,3.3
6784.0,3.3
6786.0,3.17
6787.0,2.52
6789.0,2.0
6791.0,1.67
6793.0,1.54
6795.0,1.4
6797.0,1.31
6799.0,1.25
6801.0,1.28
6803.0,1.26
6805.0,1.21
6807.0,1.14
6809.0,1.12
6811.0,1.14
6813.0,1.03
6815.0,1.41
6817.0,1.41
6819.0,1.3
6821.0,1.23
6823.0,1.28
6825.0,1.3
6828.0,1.24
6830.0,1.17
6831.0,3.3
6833.0,3.3
6835.0,2.77
6837.0,2.05
6839.0,1.57
6841.0,1.41
6843.0,1.31
6845.0,1.04
6847.0,0.85
6849.0,0.75
6851.0,0.72
6853.0,0.67
6855.0,0.68
6857.0,0.68
6859.0,0.73
6861.0,0.85
6863.0,1.0
6865.0,1.1
6867.0,1.1
6870.0,1.05
6872.0,1.12
6873.0,1.14
6875.0,1.11
6877.0,1.12
6879.0,1.11
6881.0,1.18
6883.0,1.31
6885.0,1.42
6887.0,1.42
6889.0,1.45
6891.0,1.57
6893.0,1.52
6895.0,1.53
6897.0,1.45
6899.0,1.45
6901.0,1.53
6903.0,1.59
6905.0,1.71
6907.0,1.65
6909.0,1.62
6912.0,1.53
6914.0,1.45
6916.0,1.47
6917.0,1.42
6919.0,1.43
6921.0,1.5
6923.0,1.63
6925.0,1.74
6927.0,1.64
6929.0,1.66
6931.0,1.57
6933.0,1.61
6935.0,1.62
6937.0,1.64
6939.0,1.69
6941.0,1.69
6943.0,1.63
6945.0,1.65
6947.0,1.59
6949.0,1.57
6951.0,1.58
6953.0,1.48
6956.0,1.39
6958.0,1.23
6960.0,1.19
6961.0,1.27
6963.0,1.19
6965.0,1.25
6967.0,1.15
6969.0,1.22
6971.0,1.37
6973.0,1.43
6975.0,1.41
6977.0,1.4
6979.0,1.41
6981.0,1.45
6983.0,1.65
6985.0,1.69
6987.0,1.64
6989.0,1.55
6991.0,1.56
6993.0,1.59
6995.0,1.68
6998.0,1.75
7000.0,1.91
7002.0,2.07
7003.0,2.2
7005.0,2.16
7007.0,2.17
7009.0,2.2
7011.0,2.16
7013.0,2.13
7015.0,2.25
7017.0,2.09
7019.0,1.98
7021.0,1.95
7023.0,1.93
7025.0,1.93
7027.0,1.96
7029.0,2.01
7031.0,2.1
7033.0,2.0
7035.0,1.92
7037.0,1.7
7040.0,1.69
7042.0,1.67
7044.0,1.78
7046.0,2.06
7047.0,2.13
7049.0,2.05
7051.0,2.01
7053.0,2.01
7055.0,2.14
7057.0,2.09
7059.0,2.12
7061.0,2.17
7063.0,2.15
7065.0,2.16
7067.0,2.15
7069.0,1.85
7071.0,1.82
7073.0,1.74
7075.0,1.81
7077.0,1.85
7079.0,1.83
7081.0,1.93
7084.0,2.05
7086.0,2.1
7088.0,2.14
7090.0,2.12
7091.0,2.08
7093.0,1.98
7095.0,1.63
7097.0,1.49
7099.0,1.52
7101.0,1.51
7103.0,1.41
7105.0,1.22
7107.0,1.18
7109.0,1.32
7111.0,1.29
7113.0,1.33
7115.0,1.35
7117.0,1.32
7119.0,1.43
7121.0,1.41
7123.0,1.45
7126.0,1.49
7128.0,1.55
7130.0,1.6
7132.0,1.63
7134.0,1.46
7135.0,1.33
7137.0,1.36
7139.0,1.12
7141.0,0.79
7143.0,0.68
7145.0,0.49
7147.0,0.26
7149.0,0.21
7151.0,0.03
7153.0,0.0
7155.0,0.0
7157.0,0.0
7159.0,0.0
7161.0,0.0
7163.0,0.01
7165.0,0.09
7168.0,0.15
7170.0,0.43
7172.0,0.54
7174.0,0.68
7176.0,0.82
7177.0,0.98
7179.0,1.04
7181.0,1.2
7183.0,1.38
7185.0,1.47
7187.0,1.38
7189.0,1.37
7191.0,1.33
7193.0,1.51
7195.0,1.45
7197.0,1.39
7199.0,1.49
7201.0,1.58
7203.0,1.61
7205.0,1.69
7207.0,1.68
7209.0,1.77
7212.0,1.77
7214.0,1.66
7216.0,1.54
7218.0,1.49
7220.0,1.56
7221.0,1.56
7223.0,1.72
7225.0,1.69
7227.0,1.59
7229.0,1.61
7231.0,1.62
7233.0,1.61
7235.0,1.69
7237.0,1.63
7239.0,0.17
7241.0,0.0
7243.0,0.0
7245.0,0.0
7247.0,0.0
7249.0,0.0
7251.0,0.0
7254.0,0.0
7256.0,0.0
7258.0,0.0
7260.0,0.15
7262.0,0.4
7264.0,0.7
7265.0,0.95
7267.0,1.02
7269.0,1.13
7271.0,1.18
7273.0,1.32
7275.0,1.38
7277.0,1.35
7279.0,1.49
7281.0,1.77
7283.0,2.02
7285.0,2.15
7287.0,2.0
7289.0,2.01
7291.0,2.14
7293.0,2.25
7296.0,2.31
7298.0,2.28
7300.0,2.41
7302.0,2.53
7304.0,2.54
7306.0,2.53
7308.0,2.5
7309.0,2.49
7311.0,2.38
7313.0,2.31
7315.0,2.47
7317.0,2.34
7319.0,2.24
7321.0,2.19
7323.0,2.04
7325.0,1.96
7327.0,1.93
7329.0,1.99
7331.0,1.93
7333.0,1.93
7335.0,1.9
7337.0,1.84
7340.0,1.94
7342.0,1.99
7344.0,1.86
7346.0,1.8
7348.0,1.69
7350.0,1.74
7352.0,1.73
7353.0,1.72
7355.0,1.6
7357.0,1.5
7359.0,1.67
7361.0,1.74
7363.0,1.72
7365.0,1.75
7367.0,1.71
7369.0,1.7
7371.0,1.72
7373.0,1.63
7375.0,1.55
7377.0,1.53
7379.0,1.5
7382.0,1.36
7384.0,1.35
7386.0,1.31
7388.0,1.27
7390.0,1.37
7392.0,1.38
7394.0,1.42
7396.0,1.45
7397.0,1.39
7399.0,1.4
7401.0,1.35
7403.0,1.46
7405.0,1.53
7407.0,1.46
7409.0,1.59
7411.0,1.49
7413.0,1.43
7415.0,1.49
7417.0,1.44
7419.0,1.5
7421.0,1.52
7424.0,1.4
7426.0,1.48
7428.0,1.36
7430.0,1.39
7432.0,1.39
7434.0,1.44
7436.0,1.44
7438.0,1.29
7440.0,1.44
7441.0,1.59
7443.0,1.54
7445.0,1.53
7447.0,1.47
7449.0,1.47
7451.0,1.51
7453.0,1.65
7455.0,1.48
7457.0,1.41
7459.0,1.6
7461.0,1.6
7463.0,1.55
7465.0,1.7
7468.0,1.63
7470.0,1.73
7472.0,1.78
7474.0,1.64
7476.0,1.58
7478.0,1.29
7480.0,1.09
7482.0,1.09
7483.0,1.17
7485.0,1.29
7487.0,1.05
7489.0,1.02
7491.0,1.06
7493.0,1.02
7495.0,0.91
7497.0,0.86
7499.0,0.96
7501.0,1.1
7503.0,1.18
7505.0,1.28
7507.0,1.28
7510.0,1.54
7512.0,1.52
7514.0,1.52
7516.0,1.63
7518.0,1.6
7520.0,1.78
7522.0,1.88
7524.0,1.93
7526.0,1.88
7527.0,1.8
7529.0,1.83
7531.0,1.9
7533.0,1.93
7535.0,1.9
7537.0,1.82
7539.0,1.89
7541.0,1.99
7543.0,1.92
7545.0,1.89
7547.0,1.83
7549.0,1.9
7552.0,1.91
7554.0,1.81
7556.0,1.65
7558.0,1.57
7560.0,1.57
7562.0,1.6
7564.0,1.71
7566.0,1.63
7568.0,1.45
7570.0,1.41
7571.0,1.15
7573.0,1.0
7575.0,0.99
7577.0,0.96
7579.0,0.95
7581.0,1.1
7583.0,1.11
7585.0,1.25
7587.0,1.13
7589.0,1.07
7591.0,1.06
7593.0,1.09
7596.0,1.17
7598.0,1.13
7600.0,1.33
7602.0,1.48
7604.0,1.68
7606.0,1.89
7608.0,1.88
7610.0,1.95
7612.0,1.85
7614.0,1.68
7615.0,1.66
7617.0,1.59
7619.0,1.64
7621.0,1.66
7623.0,1.75
7625.0,1.79
7627.0,1.64
7629.0,1.47
7631.0,1.36
7633.0,1.27
7635.0,1.37
7638.0,3.3
7640.0,3.3
7642.0,2.93
7644.0,2.14
7646.0,1.63
7648.0,1.26
7650.0,1.12
7652.0,0.99
7654.0,0.97
7656.0,0.79
7658.0,0.52
7660.0,0.59
7661.0,0.63
7663.0,0.59
7665.0,0.83
7667.0,0.81
7669.0,0.86
7671.0,0.96
7673.0,0.95
7675.0,0.88
7677.0,0.78
7680.0,0.85
7682.0,1.01
7684.0,1.06
7686.0,1.24
7688.0,1.15
7690.0,1.13
7692.0,1.18
7694.0,1.17
7696.0,1.11
7698.0,1.15
7700.0,1.31
7702.0,1.5
7704.0,1.62
7705.0,1.59
7707.0,1.62
7709.0,1.79
7711.0,1.66
7713.0,1.62
7715.0,1.67
7717.0,1.5
7719.0,1.54
7721.0,1.57
7724.0,1.56
7726.0,1.59
7728.0,1.51
7730.0,1.56
7732.0,1.56
7734.0,1.63
7736.0,1.61
7738.0,1.45
7740.0,1.52
7742.0,1.58
7744.0,1.45
7746.0,1.43
7748.0,1.46
7749.0,1.4
7751.0,1.44
7753.0,1.35
7755.0,1.26
7757.0,1.21
7759.0,1.31
7761.0,1.22
7763.0,1.26
7766.0,1.3
7768.0,1.16
7770.0,1.19
7772.0,1.19
7774.0,1.23
7776.0,1.2
7778.0,1.12
7780.0,1.2
7782.0,1.39
7784.0,1.53
7786.0,1.5
7788.0,1.44
7790.0,1.43
7792.0,1.46
7793.0,1.4
7795.0,1.24
7797.0,1.11
7799.0,1.1
7801.0,1.23
7803.0,1.27
7805.0,1.28
7808.0,1.29
7810.0,1.4
7812.0,1.33
7814.0,1.36
7816.0,1.33
7818.0,1.26
7820.0,1.36
7822.0,1.43
7824.0,1.43
7826.0,1.45
7828.0,1.46
7830.0,1.57
7832.0,1.68
7834.0,1.77
7835.0,1.63
7837.0,1.68
7839.0,1.91
7841.0,1.98
7843.0,1.86
7845.0,1.75
7847.0,1.72
7849.0,1.83
7852.0,1.82
7854.0,1.75
7856.0,1.68
7858.0,1.57
7860.0,1.58
7862.0,1.58
7864.0,1.5
7866.0,1.42
7868.0,1.42
7870.0,1.45
7872.0,1.45
7874.0,1.41
7876.0,1.36
7878.0,1.28
7879.0,1.32
7881.0,1.48
7883.0,1.54
7885.0,1.52
7887.0,1.59
7889.0,1.61
7891.0,1.53
7894.0,1.56
7896.0,1.54
7898.0,1.48
7900.0,1.57
7902.0,1.65
7904.0,1.71
7906.0,1.71
7908.0,1.71
7910.0,1.65
7912.0,1.57
7914.0,1.54
7916.0,1.64
7918.0,1.64
7920.0,1.74
7921.0,1.73
7923.0,1.74
7925.0,1.82
7927.0,1.83
7929.0,1.85
7931.0,2.0
7933.0,2.02
7936.0,1.93
7938.0,1.85
7940.0,1.85
7942.0,1.94
7944.0,1.95
7946.0,1.88
7948.0,1.91
7950.0,1.95
7952.0,1.91
7954.0,1.81
7956.0,1.75
7958.0,1.78
7960.0,1.85
7962.0,1.92
7964.0,1.98
7965.0,1.97
7967.0,1.98
7969.0,1.98
7971.0,1.84
7973.0,1.86
7975.0,1.8
7977.0,1.75
7980.0,1.82
7982.0,1.98
7984.0,2.07
7986.0,2.08
7988.0,2.01
7990.0,1.97
7992.0,2.01
7994.0,1.9
7996.0,1.83
7998.0,1.88
8000.0,1.97
8002.0,1.94
8004.0,2.01
8006.0,2.01
8008.0,1.98
8009.0,1.88
8011.0,1.73
8013.0,1.72
8015.0,1.65
8017.0,1.69
8019.0,1.7
8022.0,1.65
8024.0,1.72
8026.0,1.63
8028.0,1.58
8030.0,1.67
8032.0,1.72
8034.0,1.77
8036.0,1.76
8038.0,1.78
8040.0,1.82
8042.0,2.0
8044.0,1.97
8046.0,1.9
8048.0,1.94
8050.0,2.0
8051.0,1.83
8053.0,1.78
8055.0,1.71
8057.0,1.71
8059.0,1.73
8061.0,1.72
8064.0,1.69
8066.0,1.75
8068.0,1.72
8070.0,1.65
8072.0,1.61
8074.0,1.63
8076.0,1.53
8078.0,1.46
8080.0,1.6
8082.0,1.71
8084.0,1.76
8086.0,1.77
8088.0,1.7
8090.0,1.7
8092.0,1.7
8094.0,1.6
8095.0,1.43
8097.0,1.46
8099.0,1.58
8101.0,1.62
8103.0,1.63
8105.0,1.6
8108.0,1.58
8110.0,1.47
8112.0,1.45
8114.0,1.41
8116.0,1.32
8118.0,1.27
8120.0,1.33
8122.0,1.46
8124.0,1.52
8126.0,1.39
8128.0,1.36
8130.0,1.32
8132.0,1.43
8134.0,1.43
8136.0,1.34
8137.0,1.23
8139.0,1.31
8141.0,1.5
8143.0,1.58
8145.0,1.54
8147.0,1.51
8150.0,1.58
8152.0,1.69
8154.0,1.66
8156.0,1.63
8158.0,1.64
8160.0,1.66
8162.0,1.64
8164.0,1.72
8166.0,1.68
8168.0,1.6
8170.0,1.52
8172.0,1.55
8174.0,1.64
8176.0,1.66
8178.0,1.71
8180.0,1.66
8181.0,1.76
8183.0,1.95
8185.0,1.74
8187.0,1.68
8189.0,1.65
8192.0,1.64
8194.0,1.59
8196.0,1.52
8198.0,1.55
8200.0,1.62
8202.0,1.7
8204.0,1.66
8206.0,1.57
8208.0,1.64
8210.0,1.62
8212.0,1.45
8214.0,1.55
8216.0,1.52
8218.0,1.55
8220.0,1.67
8222.0,1.67
8223.0,1.65
8225.0,1.49
8227.0,1.42
8229.0,1.39
8231.0,1.5
8233.0,1.55
8236.0,1.35
8238.0,1.3
8240.0,1.41
8242.0,1.42
8244.0,1.38
8246.0,1.3
8248.0,1.26
8250.0,1.27
8252.0,1.29
8254.0,1.22
8256.0,1.14
8258.0,1.2
8260.0,1.18
8262.0,1.26
8264.0,1.33
8266.0,1.33
8267.0,1.25
8269.0,1.24
8271.0,1.24
8273.0,1.16
8275.0,1.01
8278.0,1.0
8280.0,1.03
8282.0,1.12
8284.0,1.16
8286.0,1.07
8288.0,1.18
8290.0,1.22
8292.0,1.18
8294.0,1.08
8296.0,1.0
8298.0,0.98
8300.0,1.11
8302.0,1.17
8304.0,1.16
8306.0,1.14
8308.0,1.14
8310.0,1.06
8311.0,1.01
8313.0,1.05
8315.0,0.98
8317.0,0.96
8320.0,0.99
8322.0,1.01
8324.0,1.09
8326.0,0.98
8328.0,0.92
8330.0,0.92
8332.0,1.02
8334.0,0.94
8336.0,0.83
8338.0,0.94
8340.0,0.96
8342.0,1.06
8344.0,1.07
8346.0,1.03
8348.0,1.15
8350.0,1.23
8352.0,1.31
8353.0,1.37
8355.0,1.3
8357.0,1.33
8359.0,1.36
8361.0,1.5
8364.0,1.63
8366.0,1.61
8368.0,1.75
8370.0,1.63
8372.0,1.61
8374.0,1.64
8376.0,1.61
8378.0,1.55
8380.0,1.66
8382.0,1.78
8384.0,1.79
8386.0,1.8
8388.0,1.83
8390.0,1.78
8392.0,1.76
8394.0,1.72
8396.0,1.65
8397.0,1.63
8399.0,1.62
8401.0,1.59
8403.0,1.61
8406.0,1.54
8408.0,1.54
8410.0,1.56
8412.0,1.49
8414.0,1.53
8416.0,1.47
8418.0,1.49
8420.0,1.48
8422.0,1.55
8424.0,1.66
8426.0,1.53
8428.0,1.48
8430.0,1.44
8432.0,1.51
8434.0,1.55
8436.0,1.42
8438.0,1.5
8439.0,1.63
8441.0,1.62
8443.0,1.6
8445.0,1.46
8448.0,1.45
8450.0,1.49
8452.0,1.45
8454.0,1.51
8456.0,1.31
8458.0,1.3
8460.0,1.34
8462.0,1.29
8464.0,1.35
8466.0,1.26
8468.0,1.32
8470.0,1.26
8472.0,1.28
8474.0,1.35
8476.0,1.23
8478.0,1.17
8480.0,1.28
8482.0,1.32
8483.0,1.46
8485.0,1.36
8487.0,1.35
8489.0,1.45
8492.0,1.48
8494.0,1.3
8496.0,1.22
8498.0,1.33
8500.0,1.32
8502.0,1.31
8504.0,1.32
8506.0,1.21
8508.0,1.24
8510.0,1.09
8512.0,0.96
8514.0,1.06
8516.0,1.07
8518.0,1.14
8520.0,1.15
8522.0,1.28
8524.0,1.35
8525.0,1.25
8527.0,1.27
8529.0,1.33
8531.0,1.34
8534.0,1.35
8536.0,1.24
8538.0,1.27
8540.0,1.38
8542.0,1.38
8544.0,1.32
8546.0,1.29
8548.0,1.42
8550.0,1.44
8552.0,1.52
8554.0,1.63
8556.0,1.61
8558.0,1.7
8560.0,1.68
8562.0,1.63
8564.0,1.77
8566.0,1.65
8568.0,1.57
8569.0,1.48
8571.0,1.45
8573.0,1.48
8576.0,1.38
8578.0,1.31
8580.0,1.26
8582.0,1.24
8584.0,1.4
8586.0,1.24
8588.0,1.12
8590.0,1.14
8592.0,1.09
8594.0,1.07
8596.0,1.02
8598.0,1.05
8600.0,1.06
8602.0,1.14
8604.0,1.24
8606.0,1.15
8608.0,1.2
8610.0,1.25
8612.0,1.25
8613.0,1.29
8615.0,1.26
8617.0,1.32
8620.0,1.54
8622.0,1.61
8624.0,1.68
8626.0,1.55
8628.0,1.58
8630.0,1.65
8632.0,1.84
8634.0,1.96
8636.0,1.87
8638.0,1.97
8640.0,2.08
8642.0,2.17
8644.0,2.18
8646.0,2.1
8648.0,2.15
8650.0,2.22
8652.0,2.16
8654.0,2.11
8656.0,1.95
8657.0,1.97
8659.0,1.92
8662.0,2.0
8664.0,2.08
8666.0,2.0
8668.0,2.04
8670.0,2.22
8672.0,2.27
8674.0,2.29
8676.0,2.19
8678.0,2.24
8680.0,2.4
8682.0,2.5
8684.0,2.49
8686.0,2.27
8688.0,2.35
8690.0,2.43
8692.0,2.4
8694.0,2.33
8696.0,2.2
8698.0,2.22
8699.0,2.33
8701.0,2.4
8704.0,2.47
8706.0,2.3
8708.0,2.26
8710.0,2.15
8712.0,2.14
8714.0,2.19
8716.0,2.08
8718.0,2.22
8720.0,2.32
8722.0,2.28
8724.0,2.28
8726.0,2.09
8728.0,2.05
8730.0,2.07
8732.0,2.1
8734.0,1.94
8736.0,1.77
8738.0,1.78
8740.0,1.75
8742.0,1.69
8743.0,1.79
8745.0,1.66
8748.0,1.67
8750.0,1.7
8752.0,1.67
8754.0,1.61
8756.0,1.54
8758.0,1.62
8760.0,1.55
8762.0,1.59
8764.0,1.71
8766.0,1.63
8768.0,1.67
8770.0,1.64
8772.0,1.57
8774.0,1.66
8776.0,1.47
8778.0,1.44
8780.0,1.5
8782.0,1.59
8784.0,1.57
8786.0,1.46
8787.0,1.63
8790.0,1.61
8792.0,1.64
8794.0,1.56
8796.0,1.5
8798.0,1.65
8800.0,1.6
8802.0,1.48
8804.0,1.48
8806.0,1.39
8808.0,1.42
8810.0,1.37
8812.0,1.3
8814.0,1.29
8816.0,1.24
8818.0,1.37
8820.0,1.36
8822.0,1.35
8824.0,1.36
8826.0,1.29
8828.0,1.22
8829.0,1.29
8832.0,1.38
8834.0,1.35
8836.0,1.29
8838.0,1.37
8840.0,1.47
8842.0,1.59
8844.0,1.54
8846.0,1.5
8848.0,1.66
8850.0,1.63
8852.0,1.58
8854.0,1.58
8856.0,1.49
8858.0,1.6
8860.0,1.56
8862.0,1.56
8864.0,1.65
8866.0,1.65
8868.0,1.76
8870.0,1.58
8872.0,1.64
8873.0,1.59
8876.0,1.5
8878.0,1.52
8880.0,1.62
8882.0,1.58
8884.0,1.68
8886.0,1.61
8888.0,1.53
8890.0,1.53
8892.0,1.52
8894.0,1.48
8896.0,1.5
8898.0,1.6
8900.0,1.53
8902.0,1.58
8904.0,1.59
8906.0,1.49
8908.0,1.51
8910.0,1.45
8912.0,1.35
8914.0,1.36
8916.0,1.25
8918.0,1.23
8920.0,1.24
8922.0,1.26
8924.0,1.22
8926.0,1.14
8928.0,1.18
8930.0,1.33
8932.0,1.35
8934.0,1.37
8936.0,1.31
8938.0,1.37
8940.0,1.49
8942.0,1.55
8944.0,1.52
8946.0,1.52
8948.0,1.51
8950.0,1.52
8952.0,1.45
8954.0,1.47
8956.0,1.39
8958.0,1.54
8961.0,1.54
8962.0,1.57
8964.0,1.62
8966.0,1.57
8968.0,1.6
8970.0,1.61
8972.0,1.67
8974.0,1.6
8976.0,1.5
8978.0,1.49
8980.0,1.52
8982.0,1.66
8984.0,1.68
8986.0,1.56
8988.0,1.54
8990.0,1.45
8992.0,1.4
8994.0,1.35
8996.0,1.25
8998.0,1.34
9000.0,1.37
9003.0,1.39
9004.0,1.41
9006.0,1.37
9008.0,1.27
9010.0,1.23
9012.0,1.23
9014.0,1.27
9016.0,1.16
9018.0,1.18
9020.0,1.24
9022.0,1.26
9024.0,1.16
9026.0,1.18
9028.0,1.27
9030.0,1.25
9032.0,1.26
9034.0,1.21
9036.0,1.11
9038.0,1.12
9040.0,1.24
9042.0,1.32
9044.0,1.48
9047.0,1.49
9048.0,1.53
9050.0,1.45
9052.0,1.46
9054.0,1.49
9056.0,1.42
9058.0,1.45
9060.0,1.37
9062.0,1.38
9064.0,1.39
9066.0,1.34
9068.0,1.42
9070.0,1.35
9072.0,1.31
9074.0,1.28
9076.0,1.19
9078.0,1.2
9080.0,1.43
9082.0,1.44
9084.0,1.45
9086.0,1.44
9089.0,1.52
9090.0,1.45
9092.0,1.49
9094.0,1.41
9096.0,1.36
9098.0,1.44
9100.0,1.5
9102.0,1.47
9104.0,1.52
9106.0,1.48
9108.0,1.44
9110.0,1.35
9112.0,1.35
9114.0,1.47
9116.0,1.46
9118.0,1.54
9120.0,1.58
9122.0,1.65
9124.0,1.64
9126.0,1.59
9128.0,1.66
9131.0,1.76
9133.0,1.81
9134.0,1.75
9136.0,1.81
9138.0,1.86
9140.0,1.9
9142.0,1.84
9144.0,1.74
9146.0,1.72
9148.0,1.75
9150.0,1.7
9152.0,1.59
9154.0,1.52
9156.0,1.45
9158.0,1.51
9160.0,1.61
9162.0,1.66
9164.0,1.45
9166.0,1.38
9168.0,1.39
9170.0,1.38
9172.0,1.44
9175.0,1.5
9177.0,1.53
9178.0,1.67
9180.0,1.84
9182.0,1.87
9184.0,1.74
9186.0,1.66
9188.0,1.68
9190.0,1.71
9192.0,1.78
9194.0,1.72
9196.0,1.68
9198.0,1.85
9200.0,1.88
9202.0,1.96
9204.0,1.95
9206.0,1.95
9208.0,1.97
9210.0,3.3
9212.0,3.3
9214.0,3.3
9217.0,3.3
9219.0,3.3
9221.0,3.3
9222.0,3.3
9224.0,3.09
9226.0,2.7
9228.0,2.44
9230.0,2.25
9232.0,2.08
9234.0,1.92
9236.0,1.88
9238.0,1.89
9240.0,1.93
9242.0,1.85
9244.0,1.74
9246.0,1.66
9248.0,1.55
9250.0,1.49
9252.0,1.36
9254.0,1.24
9256.0,1.25
9259.0,1.28
9261.0,1.3
9263.0,1.27
9265.0,1.25
9266.0,1.2
9268.0,1.23
9270.0,1.15
9272.0,1.13
9274.0,1.05
9276.0,0.95
9278.0,0.95
9280.0,1.25
9282.0,1.21
9284.0,1.18
9286.0,1.16
9288.0,1.14
9290.0,1.15
9292.0,1.02
9294.0,0.96
9296.0,1.01
9298.0,1.02
9300.0,1.03
9303.0,1.03
9305.0,0.97
9307.0,0.94
9309.0,0.87
9310.0,0.67
9312.0,0.55
9314.0,0.51
9316.0,0.53
9318.0,0.54
9320.0,0.48
9322.0,0.48
9324.0,0.43
9326.0,0.41
9328.0,0.42
9330.0,0.49
9332.0,0.48
9334.0,0.46
9336.0,0.5
9338.0,0.52
9340.0,0.68
9342.0,0.62
9345.0,0.57
9347.0,0.64
9349.0,0.6
9351.0,0.67
9352.0,0.7
9354.0,0.61
9356.0,0.68
9358.0,0.75
9360.0,0.78
9362.0,0.79
9364.0,0.8
9366.0,0.9
9368.0,0.89
9370.0,0.9
9372.0,0.9
9374.0,0.84
9376.0,0.88
9378.0,1.05
9380.0,1.11
9382.0,1.14
9384.0,1.15
9387.0,1.1
9389.0,1.09
9391.0,1.13
9393.0,1.05
9395.0,1.03
9396.0,1.08
9398.0,1.1
9400.0,1.1
9402.0,1.21
9404.0,1.15
9406.0,1.19
9408.0,1.18
9410.0,1.16
9412.0,1.11
9414.0,1.04
9416.0,1.13
9418.0,1.17
9420.0,1.22
9422.0,1.27
9424.0,1.29
9426.0,1.3
9428.0,1.25
9431.0,1.22
9433.0,1.31
9435.0,1.23
9437.0,1.22
9439.0,1.4
9441.0,1.44
9442.0,1.35
9444.0,1.32
9446.0,1.44
9448.0,1.47
9450.0,1.45
9452.0,1.42
9454.0,1.36
9456.0,1.58
9458.0,1.6
9460.0,1.59
9462.0,1.64
9464.0,1.51
9466.0,1.51
9468.0,1.52
9470.0,1.45
9473.0,1.38
9475.0,1.24
9477.0,1.24
9479.0,1.28
9481.0,1.38
9483.0,1.39
9484.0,1.35
9486.0,1.33
9488.0,1.41
9490.0,1.32
9492.0,1.16
9494.0,1.11
9496.0,1.16
9498.0,1.28
9500.0,1.31
9502.0,1.28
9504.0,1.16
9506.0,1.21
9508.0,1.11
9510.0,1.02
9512.0,1.1
9515.0,1.08
9517.0,1.1
9519.0,1.26
9521.0,1.24
9523.0,1.19
9525.0,1.1
9527.0,1.04
9528.0,1.06
9530.0,1.14
9532.0,1.18
9534.0,1.22
9536.0,1.35
9538.0,1.42
9540.0,1.43
9542.0,1.46
9544.0,1.38
9546.0,1.41
9548.0,1.59
9550.0,1.58
9552.0,2.01
9554.0,3.3
9556.0,3.28
9559.0,2.2
9561.0,1.39
9563.0,1.08
9565.0,0.75
9567.0,0.65
9569.0,0.56
9571.0,0.56
9572.0,0.56
9574.0,0.59
9576.0,0.68
9578.0,0.76
9580.0,1.01
9582.0,1.09
9584.0,1.08
9586.0,1.17
9588.0,1.25
9590.0,1.28
9592.0,1.35
9594.0,1.31
9596.0,1.46
9598.0,1.54
9601.0,1.54
9603.0,1.49
9605.0,1.46
9607.0,1.47
9609.0,1.3
9611.0,1.18
9613.0,1.17
9615.0,1.05
9616.0,1.05
9618.0,1.13
9620.0,1.0
9622.0,1.0
9624.0,0.96
9626.0,0.97
9628.0,1.06
9630.0,1.21
9632.0,1.32
9634.0,1.22
9636.0,1.31
9638.0,1.33
9640.0,1.4
9643.0,1.46
9645.0,1.43
9647.0,1.5
9649.0,1.46
9651.0,1.37
9653.0,1.39
9655.0,1.3
9657.0,1.43
9658.0,1.48
9660.0,1.5
9662.0,1.47
9664.0,1.41
9666.0,1.55
9668.0,1.58
9670.0,1.6
9672.0,1.67
9674.0,1.62
9676.0,1.62
9678.0,1.63
9680.0,1.71
9682.0,3.3
9684.0,3.07
9687.0,2.41
9689.0,2.05
9691.0,1.88
9693.0,1.78
9695.0,1.62
9697.0,1.65
9699.0,1.67
9701.0,1.62
9702.0,1.67
9704.0,1.62
9706.0,1.7
9708.0,1.62
9710.0,1.56
9712.0,1.54
9714.0,1.48
9716.0,1.51
9718.0,1.45
9720.0,1.59
9722.0,1.72
9724.0,1.67
9726.0,1.66
9729.0,1.66
9731.0,1.69
9733.0,1.64
9735.0,1.64
9737.0,1.7
9739.0,1.76
9741.0,1.65
9743.0,1.66
9745.0,1.55
9746.0,1.64
9748.0,1.55
9750.0,1.5
9752.0,1.47
9754.0,1.26
9756.0,1.28
9758.0,1.2
9760.0,1.21
9762.0,1.25
9764.0,1.23
9766.0,1.31
9768.0,1.3
9771.0,1.46
9773.0,1.55
9775.0,1.41
9777.0,1.52
9779.0,1.61
9781.0,1.73
9783.0,1.76
9785.0,1.7
9787.0,1.69
9789.0,1.73
9790.0,1.69
9792.0,1.53
9794.0,1.47
9796.0,1.61
9798.0,1.59
9800.0,1.73
9802.0,1.91
9804.0,1.83
9806.0,1.84
9808.0,1.75
9810.0,1.64
9812.0,1.68
9815.0,1.53
9817.0,1.5
9819.0,1.63
9821.0,1.64
9823.0,1.6
9825.0,1.46
9827.0,1.35
9829.0,1.21
9831.0,1.3
9833.0,1.36
9834.0,1.24
9836.0,1.34
9838.0,1.43
9840.0,1.36
9842.0,1.37
9844.0,1.32
9846.0,1.43
9848.0,1.47
9850.0,1.64
9852.0,1.72
9854.0,1.68
9857.0,1.78
9859.0,1.78
9861.0,1.81
9863.0,1.88
9865.0,1.8
9867.0,1.81
9869.0,1.75
9871.0,1.73
9873.0,1.63
9875.0,1.68
9877.0,1.74
9878.0,1.72
9880.0,1.79
9882.0,1.86
9884.0,1.75
9886.0,1.81
9888.0,1.79
9890.0,1.78
9892.0,1.75
9894.0,1.7
9896.0,1.68
9899.0,1.78
9901.0,1.85
9903.0,1.82
9905.0,1.75
9907.0,1.82
9909.0,1.66
9911.0,1.68
9913.0,1.71
9915.0,1.65
9917.0,1.66
9919.0,1.77
9921.0,1.88
9922.0,1.8
9924.0,1.65
9926.0,1.6
9928.0,1.59
9930.0,1.66
9932.0,1.63
9934.0,1.51
9936.0,1.59
9938.0,1.58
9940.0,1.51
9943.0,1.44
9945.0,1.37
9947.0,1.39
9949.0,1.39
9951.0,1.44
9953.0,1.34
9955.0,1.26
9957.0,1.39
9959.0,1.32
9961.0,1.43
9963.0,1.5
9965.0,1.4
9966.0,1.39
9968.0,1.44
9970.0,1.42
9972.0,1.36
9974.0,1.32
9976.0,1.32
9978.0,1.43
9980.0,1.51
9982.0,1.39
9985.0,1.25
9987.0,1.34
9989.0,1.33
9991.0,1.36
9993.0,1.24
9995.0,1.21
9997.0,1.37
9999.0,1.46
10001.0,1.56
10003.0,1.54
10005.0,1.57
10007.0,1.7
10009.0,1.66
10010.0,1.65
10012.0,1.67
10014.0,1.62
10016.0,1.75
10018.0,1.86
10020.0,1.84
10022.0,1.93
10024.0,1.86
10027.0,1.81
10029.0,1.85
10031.0,1.92
10033.0,1.84
10035.0,1.75
10037.0,1.78
10039.0,1.8
10041.0,1.75
10043.0,1.72
10045.0,1.6
10047.0,1.62
10049.0,1.74
10051.0,1.69
10052.0,1.66
10054.0,1.64
10056.0,1.73
10058.0,1.72
10060.0,1.71
10062.0,1.78
10064.0,1.73
10066.0,1.75
10068.0,1.79
10071.0,1.81
10073.0,1.7
10075.0,1.57
10077.0,1.58
10079.0,1.75
10081.0,1.89
10083.0,1.93
10085.0,1.73
10087.0,1.68
10089.0,1.62
10091.0,1.51
10093.0,1.43
10094.0,1.34
10096.0,1.36
10098.0,1.45
10100.0,1.43
10102.0,1.46
10104.0,1.35
10106.0,1.37
10108.0,1.36
10110.0,1.28
10113.0,1.17
10115.0,1.12
10117.0,1.24
10119.0,1.22
10121.0,1.25
10123.0,1.16
10125.0,1.08
10127.0,1.06
10129.0,1.13
10131.0,1.13
10133.0,1.13
10135.0,0.99
10137.0,0.98
10138.0,1.22
10140.0,1.25
10142.0,1.15
10144.0,1.13
10146.0,1.24
10148.0,1.25
10150.0,1.25
10152.0,1.3
10155.0,1.28
10157.0,1.44
10159.0,1.5
10161.0,1.46
10163.0,1.48
10165.0,1.45
10167.0,1.49
10169.0,1.46
10171.0,1.54
10173.0,1.45
10175.0,1.38
10177.0,1.46
10179.0,1.58
10180.0,1.62
10182.0,1.66
10184.0,1.52
10186.0,1.55
10188.0,1.6
10190.0,1.52
10192.0,1.45
10194.0,1.37
10196.0,1.43
10199.0,1.53
10201.0,1.55
10203.0,1.51
10205.0,1.48
10207.0,1.55
10209.0,1.46
10211.0,1.46
10213.0,1.43
10215.0,1.42
10217.0,1.45
10219.0,1.48
10221.0,1.58
10222.0,1.56
10224.0,1.53
10226.0,1.48
10228.0,1.43
10230.0,1.43
10232.0,1.28
10234.0,1.16
10236.0,1.15
10238.0,1.15
10241.0,1.15
10243.0,1.12
10245.0,1.06
10247.0,1.07
10249.0,1.06
10251.0,1.04
10253.0,0.92
10255.0,0.85
10257.0,0.97
10259.0,0.95
10261.0,0.94
10263.0,1.06
10265.0,1.08
10266.0,1.08
10268.0,1.2
10270.0,1.23
10272.0,1.24
10274.0,1.24
10276.0,1.28
10278.0,1.41
10280.0,1.51
10283.0,1.43
10285.0,1.36
10287.0,1.43
10289.0,1.48
10291.0,1.33
10293.0,1.26
10295.0,1.25
10297.0,1.35
10299.0,1.44
10301.0,1.51
10303.0,1.48
10305.0,1.44
10307.0,1.5
10308.0,1.4
10310.0,1.4
10312.0,1.36
10314.0,1.39
10316.0,1.48
10318.0,1.6
10320.0,1.52
10322.0,1.52
10324.0,1.54
10327.0,1.45
10329.0,1.48
10331.0,1.51
10333.0,1.5
10335.0,1.44
10337.0,1.51
10339.0,1.6
10341.0,1.63
10343.0,1.63
10345.0,1.64
10347.0,1.67
10349.0,1.68
10350.0,1.68
10352.0,1.57
10354.0,1.57
10356.0,1.71
10358.0,1.68
10360.0,1.72
10362.0,1.76
10364.0,1.76
10366.0,1.8
10369.0,1.75
10371.0,1.65
10373.0,1.55
10375.0,1.46
10377.0,1.45
10379.0,1.55
10381.0,1.56
10383.0,1.53
10385.0,1.51
10387.0,1.59
10389.0,1.6
10391.0,1.53
10393.0,1.54
10394.0,1.55
10396.0,1.62
10398.0,1.7
10400.0,1.65
10402.0,1.61
10404.0,1.68
10406.0,1.68
10408.0,1.49
10411.0,1.47
10413.0,1.43
10415.0,1.38
10417.0,1.4
10419.0,1.37
10421.0,1.45
10423.0,1.44
10425.0,1.36
10427.0,1.26
10429.0,1.27
10431.0,1.3
10433.0,1.24
10435.0,1.24
10436.0,1.34
10438.0,1.38
10440.0,1.35
10442.0,1.33
10444.0,1.27
10446.0,1.24
10448.0,1.12
10450.0,1.04
10452.0,0.99
10455.0,1.0
10457.0,1.11
10459.0,1.05
10461.0,1.09
10463.0,1.06
10465.0,1.0
10467.0,1.0
10469.0,1.02
10471.0,0.91
10473.0,0.84
10475.0,0.81
10477.0,0.84
10478.0,0.9
10480.0,1.02
10482.0,0.95
10484.0,0.9
10486.0,0.98
10488.0,1.01
10490.0,1.03
10492.0,0.93
10494.0,0.98
10497.0,1.12
10499.0,1.15
10501.0,1.21
10503.0,1.27
10505.0,1.3
10507.0,1.33
10509.0,1.32
10511.0,1.31
10513.0,1.42
10515.0,1.43
10517.0,1.52
10519.0,1.59
10521.0,1.67
10522.0,1.7
10524.0,1.72
10526.0,1.73
10528.0,1.87
10530.0,1.89
10532.0,1.85
10534.0,1.92
10536.0,1.9
10539.0,2.06
10541.0,2.11
10543.0,2.13
10545.0,2.31
10547.0,2.36
10549.0,2.29
10551.0,2.28
10553.0,2.25
10555.0,2.17
10557.0,2.17
10559.0,2.15
10561.0,2.15
10563.0,2.13
10564.0,2.16
10566.0,2.08
10568.0,1.92
10570.0,1.87
10572.0,1.74
10574.0,1.64
10576.0,1.53
10578.0,1.65
10580.0,1.7
10583.0,1.65
10585.0,1.7
10587.0,1.67
10589.0,1.73
10591.0,1.69
10593.0,1.58
10595.0,1.61
10597.0,1.62
10599.0,1.74
10601.0,1.88
10603.0,1.81
10605.0,1.85
10606.0,1.91
10608.0,1.81
10610.0,1.72
10612.0,1.62
10614.0,1.61
10616.0,3.3
10618.0,3.3
10620.0,3.3
10622.0,2.75
10625.0,2.26
10627.0,1.99
10629.0,1.83
10631.0,1.77
10633.0,1.66
10635.0,1.59
10637.0,1.67
10639.0,1.77
10641.0,1.77
10643.0,1.68
10645.0,1.72
10647.0,1.68
10649.0,1.76
10650.0,1.81
10652.0,1.66
10654.0,1.75
10656.0,1.79
10658.0,1.71
10660.0,1.68
10662.0,1.67
10664.0,1.66
10667.0,1.69
10669.0,1.65
10671.0,1.57
10673.0,1.44
10675.0,1.38
10677.0,1.39
10679.0,1.35
10681.0,1.55
10683.0,1.48
10685.0,1.4
10687.0,1.43
10689.0,1.51
10691.0,1.43
10692.0,1.37
10694.0,1.38
10696.0,1.45
10698.0,1.5
10700.0,1.51
10702.0,1.39
10704.0,1.42
10706.0,1.37
10708.0,1.3
10711.0,1.29
10713.0,1.36
10715.0,1.36
10717.0,1.47
10719.0,1.63
10721.0,1.55
10723.0,1.5
10725.0,1.49
10727.0,1.46
10729.0,1.51
10731.0,1.55
10733.0,1.43
10734.0,1.47
10736.0,1.51
10738.0,1.5
10740.0,1.5
10742.0,1.47
10744.0,1.49
10746.0,1.46
10748.0,1.48
10750.0,1.44
10753.0,1.39
10755.0,1.47
10757.0,1.47
10759.0,1.5
10761.0,1.56
10763.0,1.5
10765.0,1.49
10767.0,1.54
10769.0,1.56
10771.0,1.48
10773.0,1.38
10775.0,1.35
10777.0,1.31
10778.0,1.45
10780.0,1.47
10782.0,1.43
10784.0,1.45
10786.0,1.46
10788.0,1.38
10790.0,1.3
10792.0,1.19
10795.0,1.22
10797.0,1.29
10799.0,1.39
10801.0,1.37
10803.0,1.26
10805.0,1.31
10807.0,1.27
10809.0,1.23
10811.0,1.24
10813.0,1.18
10815.0,1.18
10817.0,1.26
10819.0,1.27
10820.0,1.26
10822.0,1.19
10824.0,1.26
10826.0,1.21
10828.0,1.29
10830.0,1.26
10832.0,1.09
10834.0,1.1
10836.0,1.05
10839.0,1.09
10841.0,1.04
10843.0,0.93
10845.0,0.92
10847.0,0.94
10849.0,0.88
10851.0,0.83
10853.0,0.75
10855.0,0.84
10857.0,0.81
10859.0,0.83
10861.0,0.93
10863.0,0.88
10864.0,0.97
10866.0,1.02
10868.0,1.03
10870.0,1.14
10872.0,1.09
10874.0,1.15
10876.0,1.25
10878.0,1.28
10881.0,1.39
10883.0,1.38
10885.0,1.48
10887.0,1.5
10889.0,1.48
10891.0,1.44
10893.0,1.39
10895.0,1.43
10897.0,1.45
10899.0,1.53
10901.0,1.54
10903.0,1.54
10905.0,1.61
10906.0,1.54
10908.0,1.55
10910.0,1.57
10912.0,1.49
10914.0,1.57
10916.0,1.59
10918.0,1.56
10920.0,1.69
10923.0,1.61
10925.0,1.62
10927.0,1.66
10929.0,1.79
10931.0,1.74
10933.0,1.62
10935.0,1.69
10937.0,1.73
10939.0,1.82
10941.0,1.77
10943.0,1.71
10945.0,1.73
10947.0,1.68
10948.0,1.62
10950.0,1.62
10952.0,1.54
10954.0,1.57
10956.0,1.66
10958.0,1.73
10960.0,1.78
10962.0,1.7
10964.0,1.72
10967.0,1.69
10969.0,1.65
10971.0,1.63
10973.0,1.53
10975.0,1.5
10977.0,1.54
10979.0,1.67
10981.0,1.7
10983.0,1.65
10985.0,1.7
10987.0,1.69
10989.0,1.69
10991.0,1.68
10992.0,1.61
10994.0,1.72
10996.0,1.79
10998.0,1.81
11000.0,1.78
11002.0,1.72
11004.0,1.8
11006.0,1.83
11009.0,1.78
11011.0,1.72
11013.0,1.68
11015.0,1.74
11017.0,1.74
11019.0,1.82
11021.0,1.94
11023.0,1.86
11025.0,1.85
11027.0,1.85
11029.0,1.95
11031.0,1.97
11033.0,1.81
11034.0,1.84
11036.0,1.84
11038.0,1.89
11040.0,1.95
11042.0,1.85
11044.0,1.91
11046.0,1.82
11048.0,1.85
11051.0,1.94
11053.0,1.92
11055.0,1.92
11057.0,1.92
11059.0,1.81
11061.0,1.77
11063.0,1.75
11065.0,1.92
11067.0,1.87
11069.0,1.9
11071.0,1.94
11073.0,1.86
11075.0,1.85
11076.0,1.97
11078.0,2.07
11080.0,2.15
11082.0,2.0
11084.0,2.06
11086.0,2.05
11088.0,2.04
11090.0,1.93
11092.0,1.82
11095.0,1.9
11097.0,1.91
11099.0,1.87
11101.0,1.88
11103.0,1.81
11105.0,1.83
11107.0,1.77
11109.0,1.73
11111.0,1.76
11113.0,1.75
11115.0,1.82
11117.0,1.9
11119.0,1.98
11120.0,1.95
11122.0,1.83
11124.0,1.77
11126.0,1.83
11128.0,1.94
11130.0,1.99
11132.0,1.81
11134.0,1.76
11137.0,1.9
11139.0,1.87
11141.0,1.81
11143.0,1.73
11145.0,1.75
11147.0,1.68
11149.0,1.63
11151.0,1.56
11153.0,1.41
11155.0,1.51
11157.0,1.46
11159.0,1.38
11161.0,1.49
11162.0,1.45
11164.0,1.42
11166.0,1.38
11168.0,1.39
11170.0,1.26
11172.0,1.05
11174.0,1.01
11176.0,1.01
11179.0,1.07
11181.0,1.07
11183.0,0.93
11185.0,0.97
11187.0,1.06
11189.0,0.99
11191.0,0.85
11193.0,0.75
11195.0,0.82
11197.0,0.99
11199.0,1.22
11201.0,1.22
11203.0,1.19
11204.0,1.31
11206.0,1.31
11208.0,1.3
11210.0,1.35
11212.0,1.27
11214.0,1.32
11216.0,1.36
11218.0,1.35
11220.0,1.25
11223.0,1.04
11225.0,1.05
11227.0,0.88
11229.0,1.04
11231.0,1.05
11233.0,0.86
11235.0,0.91
11237.0,1.01
11239.0,1.15
11241.0,1.15
11243.0,1.05
11245.0,1.15
11247.0,1.26
11248.0,1.24
11250.0,1.17
11252.0,1.09
11254.0,1.24
11256.0,1.24
11258.0,1.24
11260.0,1.3
11262.0,1.2
11265.0,1.31
11267.0,1.33
11269.0,1.3
11271.0,1.29
11273.0,1.17
11275.0,1.1
11277.0,1.18
11279.0,1.33
11281.0,1.4
11283.0,1.28
11285.0,1.27
11287.0,1.19
11289.0,1.21
11290.0,1.12
11292.0,1.0
11294.0,1.08
11296.0,1.07
11298.0,1.15
11300.0,1.12
11302.0,1.0
11304.0,0.98
11307.0,0.93
11309.0,1.0
11311.0,1.03
11313.0,0.97
11315.0,1.13
11317.0,1.27
11319.0,1.36
11321.0,1.44
11323.0,1.37
11325.0,1.33
11327.0,1.36
11329.0,1.35
11331.0,1.26
11333.0,1.18
11334.0,1.32
11336.0,1.33
11338.0,1.39
11340.0,1.37
11342.0,1.37
11344.0,1.4
11346.0,1.42
11348.0,1.4
11351.0,1.33
11353.0,1.24
11355.0,1.35
11357.0,1.37
11359.0,1.44
11361.0,1.47
11363.0,1.39
11365.0,1.44
11367.0,1.34
11369.0,1.34
11371.0,1.33
11373.0,1.26
11375.0,1.34
11376.0,1.44
11378.0,1.55
11380.0,1.59
11382.0,1.57
11384.0,1.55
11386.0,1.49
11388.0,1.44
11390.0,1.36
11393.0,1.3
11395.0,1.41
11397.0,1.55
11399.0,1.56
11401.0,1.65
11403.0,1.61
11405.0,1.7
11407.0,1.64
11409.0,1.59
11411.0,1.56
11413.0,1.53
11415.0,1.55
11417.0,1.66
11418.0,1.7
11420.0,1.75
11422.0,1.64
11424.0,1.64
11426.0,1.59
11428.0,1.51
11430.0,1.52
11432.0,1.43
11435.0,1.45
11437.0,1.51
11439.0,1.54
11441.0,1.53
11443.0,1.43
11445.0,1.44
11447.0,1.35
11449.0,1.28
11451.0,1.29
11453.0,1.14
11455.0,1.08
11457.0,1.15
11459.0,1.16
11461.0,1.29
11462.0,1.23
11464.0,1.2
11466.0,1.16
11468.0,1.12
11470.0,1.13
11472.0,1.05
11474.0,1.07
11476.0,1.13
11479.0,1.16
11481.0,1.2
11483.0,1.13
11485.0,1.11
11487.0,1.05
11489.0,1.03
11491.0,1.0
11493.0,0.98
11495.0,1.05
11497.0,1.06
11499.0,1.15
11501.0,1.19
11503.0,1.0
11504.0,0.84
11506.0,0.75
11508.0,0.64
11510.0,0.59
11512.0,0.55
11514.0,0.65
11516.0,0.76
11518.0,0.83
11521.0,0.87
11523.0,0.87
11525.0,0.87
11527.0,0.87
11529.0,0.98
11531.0,0.95
11533.0,0.92
11535.0,1.04
11537.0,1.24
11539.0,1.24
11541.0,1.13
11543.0,1.14
11545.0,1.21
11546.0,1.18
11548.0,1.25
11550.0,1.31
11552.0,1.25
11554.0,1.33
11556.0,1.37
11558.0,1.41
11560.0,1.5
11563.0,1.48
11565.0,1.5
11567.0,1.51
11569.0,1.62
11571.0,1.58
11573.0,1.58
11575.0,1.65
11577.0,1.76
11579.0,1.85
11581.0,1.89
11583.0,1.78
11585.0,1.82
11587.0,1.96
11589.0,1.94
11590.0,1.88
11592.0,1.87
11594.0,2.0
11596.0,2.05
11598.0,2.05
11600.0,1.98
11602.0,1.88
11604.0,1.78
11607.0,1.69
11609.0,1.67
11611.0,1.68
11613.0,1.7
11615.0,1.69
11617.0,1.78
11619.0,1.81
11621.0,1.83
11623.0,1.78
11625.0,1.75
11627.0,1.66
11629.0,1.81
11631.0,1.8
11632.0,1.76
11634.0,1.83
11636.0,1.88
11638.0,1.81
11640.0,1.75
11642.0,1.73
11644.0,1.78
11646.0,1.85
11649.0,1.77
11651.0,1.72
11653.0,1.77
11655.0,1.93
11657.0,1.91
11659.0,1.91
11661.0,1.89
11663.0,1.85
11665.0,1.86
11667.0,1.86
11669.0,1.78
11671.0,1.72
11673.0,1.66
11675.0,1.68
11676.0,1.7
11678.0,1.79
11680.0,1.73
11682.0,1.6
11684.0,1.61
11686.0,1.62
11688.0,1.56
11691.0,1.47
11693.0,1.37
11695.0,1.41
11697.0,1.46
11699.0,1.49
11701.0,1.49
11703.0,1.48
11705.0,1.52
11707.0,1.45
11709.0,1.48
11711.0,1.54
11713.0,1.55
11715.0,1.65
11717.0,1.67
11718.0,1.5
11720.0,1.48
11722.0,1.47
11724.0,1.44
11726.0,1.45
11728.0,1.46
11730.0,1.43
11732.0,1.37
11735.0,1.46
11737.0,1.55
11739.0,1.64
11741.0,1.68
11743.0,1.6
11745.0,1.61
11747.0,1.57
11749.0,1.54
11751.0,1.48
11753.0,1.51
11755.0,1.6
11757.0,1.55
11759.0,1.59
11760.0,1.68
11762.0,1.71
11764.0,1.76
11766.0,1.71
11768.0,1.56
11770.0,1.48
11772.0,1.41
11774.0,1.37
11777.0,1.57
11779.0,1.66
11781.0,1.71
11783.0,1.75
11785.0,1.74
11787.0,1.74
11789.0,1.85
11791.0,1.73
11793.0,1.65
11795.0,1.71
11797.0,1.76
11799.0,1.68
11801.0,1.61
11803.0,1.58
11804.0,1.58
11806.0,1.53
11808.0,1.54
11810.0,1.48
11812.0,1.43
11814.0,1.44
11816.0,1.44
11819.0,1.47
11821.0,1.37
11823.0,1.31
11825.0,1.3
11827.0,1.3
11829.0,1.31
11831.0,1.26
11833.0,1.28
11835.0,1.39
11837.0,1.46
11839.0,1.56
11841.0,1.54
11843.0,1.54
11845.0,1.6
11846.0,1.62
11848.0,1.54
11850.0,3.3
11852.0,3.3
11854.0,3.3
11856.0,2.83
11858.0,2.29
11860.0,1.92
11863.0,1.72
11865.0,1.64
11867.0,1.49
11869.0,1.41
11871.0,1.27
11873.0,1.23
11875.0,1.32
11877.0,1.42
11879.0,1.53
11881.0,1.46
11883.0,1.45
11885.0,1.49
11887.0,1.45
11888.0,1.45
11890.0,1.4
11892.0,1.34
11894.0,1.56
11896.0,1.62
11898.0,1.63
11900.0,1.64
11902.0,1.65
11905.0,1.68
11907.0,1.66
11909.0,1.65
11911.0,1.61
11913.0,1.56
11915.0,1.56
11917.0,1.55
11919.0,1.65
11921.0,1.54
11923.0,1.48
11925.0,1.48
11927.0,1.42
11929.0,1.44
11931.0,1.36
11932.0,1.38
11934.0,1.4
11936.0,1.54
11938.0,1.49
11940.0,1.44
11942.0,1.47
11944.0,1.53
11947.0,1.49
11949.0,1.53
11951.0,1.45
11953.0,1.42
11955.0,1.44
11957.0,1.53
11959.0,1.57
11961.0,1.56
11963.0,1.57
11965.0,1.51
11967.0,1.5
11969.0,1.55
11971.0,1.49
11973.0,1.41
11974.0,1.51
11976.0,1.65
11978.0,1.63
11980.0,1.65
11982.0,1.64
11984.0,1.64
11986.0,1.64
11988.0,1.56
11991.0,1.47
11993.0,1.52
11995.0,1.59
11997.0,1.54
11999.0,1.6
12001.0,1.57
12003.0,1.53
12005.0,1.53
12007.0,1.52
12009.0,1.49
12011.0,1.51
12013.0,1.58
12015.0,1.65
12016.0,1.71
12018.0,1.7
12020.0,1.67
12022.0,1.72
12024.0,1.7
12026.0,1.71
12028.0,1.63
12030.0,1.55
12033.0,1.56
12035.0,1.56
12037.0,1.64
12039.0,1.68
12041.0,1.65
12043.0,1.62
12045.0,1.66
12047.0,1.72
12049.0,1.73
12051.0,1.63
12053.0,1.57
12055.0,1.63
12057.0,1.6
12059.0,1.69
12060.0,1.76
12062.0,1.76
12064.0,1.83
12066.0,1.94
12068.0,1.89
12070.0,1.8
12072.0,1.71
12075.0,1.62
12077.0,1.75
12079.0,1.87
12081.0,1.86
12083.0,1.85
12085.0,1.93
12087.0,1.81
12089.0,1.75
12091.0,1.67
12093.0,1.66
12095.0,1.66
12097.0,1.71
12099.0,1.63
12101.0,1.51
12102.0,1.53
12104.0,1.46
12106.0,1.33
12108.0,1.27
12110.0,1.22
12112.0,1.3
12114.0,1.34
12116.0,1.39
12119.0,1.46
12121.0,1.41
12123.0,1.38
12125.0,1.33
12127.0,1.36
12129.0,1.41
12131.0,1.32
12133.0,1.39
12135.0,1.56
12137.0,1.61
12139.0,1.61
12141.0,1.53
12143.0,1.43
12144.0,1.53
12146.0,1.41
12148.0,1.32
12150.0,1.25
12152.0,1.36
12154.0,1.38
12156.0,1.37
12158.0,1.39
12161.0,1.37
12163.0,1.35
12165.0,1.38
12167.0,1.36
12169.0,1.28
12171.0,1.17
12173.0,1.1
12175.0,1.15
12177.0,1.19
12179.0,1.13
12181.0,1.01
12183.0,1.08
12185.0,0.98
12187.0,0.96
12188.0,0.9
12190.0,0.74
12192.0,0.72
12194.0,0.79
12196.0,0.82
12198.0,0.72
12200.0,0.65
12203.0,0.69
12205.0,0.67
12207.0,0.65
12209.0,0.65
12211.0,0.56
12213.0,0.62
12215.0,0.67
12217.0,0.7
12219.0,0.73
12221.0,0.73
12223.0,0.8
12225.0,0.82
12227.0,0.88
12229.0,0.85
12230.0,0.82
12232.0,0.92
12234.0,0.92
12236.0,1.07
12238.0,1.13
12240.0,0.93
12242.0,0.96
12244.0,0.96
12247.0,1.08
12249.0,1.11
12251.0,1.1
12253.0,1.2
12255.0,1.29
12257.0,1.29
12259.0,1.36
12261.0,1.35
12263.0,1.44
12265.0,1.45
12267.0,1.44
12269.0,1.45
12271.0,1.27
12273.0,1.19
12274.0,1.21
12276.0,1.31
12278.0,1.19
12280.0,0.99
12282.0,0.93
12284.0,0.84
12286.0,0.84
12289.0,0.81
12291.0,0.66
12293.0,0.78
12295.0,0.79
12297.0,0.86
12299.0,0.98
12301.0,0.92
12303.0,0.95
12305.0,0.99
12307.0,0.95
12309.0,0.93
12311.0,0.93
12313.0,1.04
12315.0,1.05
12316.0,1.05
12318.0,1.17
12320.0,1.16
12322.0,1.2
12324.0,1.25
12326.0,1.23
12328.0,1.29
12331.0,1.23
12333.0,1.25
12335.0,1.33
12337.0,1.47
12339.0,1.45
12341.0,1.38
12343.0,1.42
12345.0,1.48
12347.0,1.45
12349.0,1.45
12351.0,1.36
12353.0,1.48
12355.0,1.52
12357.0,1.55
12358.0,1.63
12360.0,1.55
12362.0,1.63
12364.0,1.53
12366.0,1.51
12368.0,1.49
12370.0,1.29
12372.0,1.24
12375.0,1.23
12377.0,1.34
12379.0,1.4
12381.0,1.3
12383.0,1.36
12385.0,1.39
12387.0,1.43
12389.0,1.28
12391.0,1.22
12393.0,1.24
12395.0,1.3
12397.0,1.32
12399.0,1.47
12401.0,1.41
12402.0,1.4
12404.0,1.4
12406.0,1.37
12408.0,1.39
12410.0,1.36
12412.0,1.44
12414.0,1.45
12417.0,1.54
12419.0,1.63
12421.0,1.56
12423.0,1.61
12425.0,1.54
12427.0,1.59
12429.0,1.63
12431.0,1.59
12433.0,1.62
12435.0,1.65
12437.0,1.74
12439.0,1.72
12441.0,1.66
12443.0,1.63
12444.0,1.57
12446.0,1.66
12448.0,1.64
12450.0,1.52
12452.0,1.5
12454.0,1.52
12456.0,1.49
12459.0,1.55
12461.0,1.48
12463.0,1.48
12465.0,1.49
12467.0,1.58
12469.0,1.49
12471.0,1.36
12473.0,1.37
12475.0,1.37
12477.0,1.5
12479.0,1.59
12481.0,1.57
12483.0,1.63
12485.0,1.56
12486.0,1.54
12488.0,1.48
12490.0,1.36
12492.0,1.48
12494.0,1.48
12496.0,1.55
12498.0,1.64
12500.0,1.62
12503.0,1.66
12505.0,1.64
12507.0,1.46
12509.0,1.47
12511.0,1.46
12513.0,1.58
12515.0,1.64
12517.0,1.66
12519.0,1.66
12521.0,1.65
12523.0,1.78
12525.0,1.75
12527.0,1.8
12529.0,1.82
12530.0,1.67
12532.0,1.66
12534.0,1.75
12536.0,1.78
12538.0,1.78
12540.0,1.63
12542.0,1.72
12545.0,1.76
12547.0,1.73
12549.0,1.74
12551.0,1.67
12553.0,1.7
12555.0,1.65
12557.0,1.59
12559.0,1.74
12561.0,1.64
12563.0,1.61
12565.0,1.57
12567.0,1.47
12569.0,1.49
12571.0,1.43
12572.0,1.46
12574.0,1.53
12576.0,1.62
12578.0,1.72
12580.0,1.62
12582.0,1.67
12584.0,1.67
12587.0,1.59
12589.0,1.55
12591.0,1.4
12593.0,1.44
12595.0,1.57
12597.0,1.61
12599.0,1.61
12601.0,1.58
12603.0,1.64
12605.0,1.61
12607.0,1.55
12609.0,1.63
12611.0,1.6
12613.0,1.65
12614.0,1.79
12616.0,1.91
12618.0,1.99
12620.0,1.79
12622.0,1.73
12624.0,1.65
12626.0,1.71
12628.0,1.72
12631.0,1.61
12633.0,1.69
12635.0,1.71
12637.0,1.81
12639.0,1.79
12641.0,1.66
12643.0,1.72
12645.0,1.68
12647.0,1.57
12649.0,1.5
12651.0,1.44
12653.0,1.49
12655.0,1.5
12657.0,1.55
12658.0,1.6
12660.0,1.51
12662.0,1.57
12664.0,1.57
12666.0,1.55
12668.0,1.57
12670.0,1.51
12673.0,1.5
12675.0,1.59
12677.0,1.64
12679.0,1.65
12681.0,1.6
12683.0,1.69
12685.0,1.59
12687.0,1.59
12689.0,1.57
12691.0,1.47
12693.0,1.54
12695.0,1.62
12697.0,1.64
12699.0,1.64
12700.0,1.53
12702.0,1.63
12704.0,1.69
12706.0,1.63
12708.0,1.61
12710.0,1.53
12712.0,1.62
12715.0,1.66
12717.0,1.77
12719.0,1.79
12721.0,1.65
12723.0,1.7
12725.0,1.73
12727.0,1.78
12729.0,1.75
12731.0,1.63
12733.0,1.65
12735.0,1.58
12737.0,1.58
12739.0,1.57
12741.0,1.45
12742.0,1.49
12744.0,1.47
12746.0,1.43
12748.0,1.46
12750.0,1.35
12752.0,1.4
12754.0,1.45
12756.0,1.41
12759.0,1.43
12761.0,1.35
12763.0,1.4
12765.0,1.24
12767.0,1.21
12769.0,1.15
12771.0,1.12
12773.0,1.19
12775.0,1.25
12777.0,1.27
12779.0,1.34
12781.0,1.17
12783.0,1.23
12785.0,1.25
12786.0,1.34
12788.0,1.28
12790.0,1.19
12792.0,1.3
12794.0,1.31
12796.0,1.29
12798.0,1.3
12801.0,1.21
12803.0,1.26
12805.0,1.27
12807.0,1.23
12809.0,1.34
12811.0,1.26
12813.0,1.27
12815.0,1.35
12817.0,1.37
12819.0,1.39
12821.0,1.25
12823.0,1.18
12825.0,1.11
12827.0,1.16
12828.0,1.21
12830.0,1.18
12832.0,1.25
12834.0,1.45
12836.0,1.47
12838.0,1.37
12840.0,1.37
12843.0,1.41
12845.0,1.42
12847.0,1.36
12849.0,1.34
12851.0,1.3
12853.0,1.37
12855.0,1.34
12857.0,1.39
12859.0,1.58
12861.0,1.45
12863.0,1.35
12865.0,1.27
12867.0,1.27
12869.0,1.26
12870.0,1.21
12872.0,1.19
12874.0,1.22
12876.0,1.32
12878.0,1.46
12880.0,1.38
12882.0,1.49
12884.0,1.51
12887.0,1.45
12889.0,1.32
12891.0,1.25
12893.0,1.36
12895.0,1.42
12897.0,1.48
12899.0,1.59
12901.0,1.6
12903.0,1.64
12905.0,1.5
12907.0,1.45
12909.0,1.45
12911.0,1.35
12913.0,1.41
12914.0,1.52
12916.0,1.63
12918.0,3.18
12920.0,3.3
12922.0,3.3
12924.0,3.21
12926.0,2.64
12929.0,2.02
12931.0,1.67
12933.0,1.47
12935.0,1.41
12937.0,1.38
12939.0,1.24
12941.0,0.97
12943.0,0.89
12945.0,0.92
12947.0,0.89
12949.0,0.87
12951.0,0.82
12953.0,1.0
12955.0,0.97
12956.0,0.95
12958.0,1.08
12960.0,1.09
12962.0,1.21
12964.0,1.25
12966.0,1.26
12968.0,1.22
12971.0,1.14
12973.0,1.17
12975.0,1.22
12977.0,1.24
12979.0,1.41
12981.0,1.38
12983.0,1.52
12985.0,1.5
12987.0,1.52
12989.0,1.51
12991.0,1.52
12993.0,1.62
12995.0,1.64
12997.0,1.65
12998.0,1.63
13000.0,1.52
13002.0,1.58
13004.0,1.52
13006.0,1.53
13008.0,1.48
13010.0,1.45
13012.0,1.55
13015.0,1.53
13017.0,1.48
13019.0,1.42
13021.0,1.38
13023.0,1.36
13025.0,1.42
13027.0,1.4
13029.0,1.45
13031.0,1.41
13033.0,1.44
13035.0,1.41
13037.0,1.4
13039.0,1.31
13041.0,1.3
13042.0,1.33
13044.0,1.4
13046.0,1.49
13048.0,1.51
13050.0,1.48
13052.0,1.54
13054.0,1.49
13057.0,1.44
13059.0,1.49
13061.0,1.51
13063.0,1.45
13065.0,1.46
13067.0,1.44
13069.0,1.37
13071.0,1.26
13073.0,1.28
13075.0,1.33
13077.0,1.52
13079.0,1.54
13081.0,1.5
13083.0,1.59
13084.0,1.65
13086.0,1.67
13088.0,1.58
13090.0,1.53
13092.0,1.55
13094.0,1.69
13096.0,1.64
13099.0,1.64
13101.0,1.65
13103.0,1.74
13105.0,1.69
13107.0,1.72
13109.0,1.73
13111.0,1.76
13113.0,1.76
13115.0,1.79
13117.0,1.8
13119.0,1.8
13121.0,1.73
13123.0,1.76
13125.0,1.78
13126.0,1.92
13128.0,1.9
13130.0,2.44
13132.0,3.3
13134.0,3.02
13136.0,2.61
13138.0,2.15
13140.0,1.96
13143.0,2.01
13145.0,1.91
13147.0,1.83
13149.0,1.75
13151.0,1.7
13153.0,1.8
13155.0,1.72
13157.0,1.61
13159.0,1.59
13161.0,1.57
13163.0,1.63
13165.0,1.58
13167.0,1.58
13169.0,1.59
13170.0,1.55
13172.0,1.6
13174.0,1.68
13176.0,1.82
13178.0,1.84
13180.0,3.3
13182.0,3.3
13185.0,3.3
13187.0,3.3
13189.0,3.3
13191.0,3.3
13193.0,3.3
13195.0,3.19
13197.0,2.64
13199.0,1.99
13201.0,1.48
13203.0,1.23
13205.0,0.98
13207.0,0.81
13209.0,0.74
13211.0,0.61
13212.0,0.67
13214.0,0.64
13216.0,0.68
13218.0,0.66
13220.0,0.67
13222.0,0.63
13224.0,0.56
13227.0,0.59
13229.0,0.68
13231.0,0.66
13233.0,0.75
13235.0,0.81
13237.0,1.0
13239.0,0.97
13241.0,1.04
13243.0,1.17
13245.0,1.21
13247.0,1.22
13249.0,1.36
13251.0,1.38
13253.0,1.55
13254.0,1.56
13256.0,1.5
13258.0,1.51
13260.0,1.58
13262.0,1.68
13264.0,1.6
13266.0,1.58
13268.0,1.57
13271.0,1.59
13273.0,1.65
13275.0,1.7
13277.0,1.78
13279.0,1.77
13281.0,1.72
13283.0,1.73
13285.0,1.77
13287.0,1.73
13289.0,1.52
13291.0,1.55
13293.0,1.53
13295.0,1.46
13297.0,1.56
13298.0,1.49
13300.0,1.55
13302.0,1.64
13304.0,1.53
13306.0,1.52
13308.0,1.56
13310.0,1.44
13313.0,1.35
13315.0,1.34
13317.0,1.46
13319.0,1.25
13321.0,1.21
13323.0,1.29
13325.0,1.35
13327.0,1.4
13329.0,1.33
13331.0,1.35
13333.0,1.43
13335.0,1.55
13337.0,1.41
13339.0,1.39
13340.0,1.37
13342.0,1.34
13344.0,1.34
13346.0,1.33
13348.0,1.25
13350.0,1.18
13352.0,1.45
13355.0,1.35
13357.0,1.25
13359.0,1.28
13361.0,1.28
13363.0,1.26
13365.0,1.19
13367.0,1.12
13369.0,1.1
13371.0,1.13
13373.0,1.21
13375.0,1.25
13377.0,1.35
13379.0,1.25
13381.0,1.21
13382.0,1.33
13384.0,1.37
13386.0,1.26
13388.0,1.09
13390.0,1.13
13392.0,1.25
13394.0,1.25
13396.0,1.34
13399.0,1.35
13401.0,1.33
13403.0,1.37
13405.0,1.31
13407.0,1.33
13409.0,1.34
13411.0,1.35
13413.0,1.38
13415.0,1.5
13417.0,1.44
13419.0,1.36
13421.0,1.33
13423.0,1.28
13425.0,1.25
13426.0,1.26
13428.0,1.25
13430.0,1.34
13432.0,1.39
13434.0,1.37
13436.0,1.39
13438.0,1.27
13441.0,1.26
13443.0,1.34
13445.0,1.33
13447.0,1.4
13449.0,1.28
13451.0,1.28
13453.0,1.39
13455.0,1.27
13457.0,1.31
13459.0,1.27
13461.0,1.28
13463.0,1.4
13465.0,1.31
13467.0,1.28
13468.0,1.28
13470.0,1.35
13472.0,1.23
13474.0,1.17
13476.0,1.24
13478.0,1.2
13480.0,1.22
13483.0,1.22
13485.0,1.18
13487.0,1.17
13489.0,0.99
13491.0,0.98
13493.0,1.06
13495.0,1.03
13497.0,1.15
13499.0,1.17
13501.0,1.12
13503.0,1.1
13505.0,0.95
13507.0,0.99
13509.0,1.02
13510.0,1.11
13512.0,1.11
13514.0,1.24
13516.0,1.32
13518.0,1.21
13520.0,1.21
13522.0,1.22
13524.0,1.28
13527.0,1.29
13529.0,1.23
13531.0,1.22
13533.0,1.2
13535.0,1.27
13537.0,1.25
13539.0,1.25
13541.0,1.35
13543.0,1.28
13545.0,1.35
13547.0,1.39
13549.0,1.38
13551.0,1.36
13553.0,1.44
13554.0,1.4
13556.0,1.38
13558.0,1.34
13560.0,1.36
13562.0,1.43
13564.0,1.41
13566.0,1.52
13569.0,1.46
13571.0,1.35
13573.0,1.43
13575.0,1.5
13577.0,1.53
13579.0,1.4
13581.0,1.44
13583.0,1.47
13585.0,1.5
13587.0,1.43
13589.0,1.4
13591.0,1.35
13593.0,1.49
13595.0,1.44
13596.0,1.46
13598.0,1.38
13600.0,1.39
13602.0,1.4
13604.0,1.33
13606.0,1.32
13608.0,1.31
13611.0,1.3
13613.0,1.34
13615.0,1.54
13617.0,1.59
13619.0,1.48
13621.0,1.39
13623.0,1.41
13625.0,1.38
13627.0,1.41
13629.0,1.37
13631.0,1.44
13633.0,1.49
13635.0,1.51
13637.0,1.39
13639.0,1.35
13640.0,1.34
13642.0,1.39
13644.0,1.34
13646.0,1.45
13648.0,1.31
13650.0,1.35
13652.0,1.47
13655.0,1.42
13657.0,1.39
13659.0,1.46
13661.0,1.52
13663.0,1.53
13665.0,1.51
13667.0,1.49
13669.0,1.44
13671.0,1.63
13673.0,1.57
13675.0,1.53
13677.0,1.66
13679.0,1.63
13681.0,1.65
13682.0,1.76
13684.0,1.79
13686.0,1.66
13688.0,1.58
13690.0,1.63
13692.0,1.72
13694.0,1.73
13697.0,1.77
13699.0,1.68
13701.0,1.78
13703.0,1.75
13705.0,1.67
13707.0,1.63
13709.0,1.59
13711.0,1.63
13713.0,1.69
13715.0,1.68
13717.0,1.75
13719.0,1.66
13721.0,1.66
13723.0,1.58
13724.0,1.56
13726.0,1.55
13728.0,1.52
13730.0,1.57
13732.0,1.72
13734.0,1.73
13736.0,1.7
13739.0,1.61
13741.0,1.63
13743.0,1.62
13745.0,1.73
13747.0,1.65
13749.0,1.53
13751.0,1.6
13753.0,1.8
13755.0,1.69
13757.0,1.74
13759.0,1.69
13761.0,1.75
13763.0,1.76
13765.0,1.74
13767.0,1.68
13768.0,1.6
13770.0,1.56
13772.0,1.57
13774.0,1.71
13776.0,1.76
13778.0,1.59
13780.0,1.62
13783.0,1.73
13785.0,1.65
13787.0,1.58
13789.0,1.47
13791.0,1.5
13793.0,1.56
13795.0,1.6
13797.0,1.57
13799.0,1.46
13801.0,1.54
13803.0,1.51
13805.0,1.46
13807.0,1.49
13809.0,1.4
13810.0,1.47
13812.0,1.56
13814.0,1.55
13816.0,1.64
13818.0,1.59
13820.0,1.57
13822.0,1.53
13825.0,1.53
13827.0,1.59
13829.0,1.54
13831.0,1.61
13833.0,1.73
13835.0,1.65
13837.0,1.63
13839.0,1.56
13841.0,1.6
13843.0,2.3
13845.0,1.96
13847.0,1.72
13849.0,1.55
13851.0,1.6
13852.0,1.5
13854.0,1.47
13856.0,1.48
13858.0,1.45
13860.0,1.48
13862.0,1.5
13864.0,1.41
13867.0,1.4
13869.0,1.35
13871.0,1.36
13873.0,1.35
13875.0,1.43
13877.0,1.43
13879.0,1.36
13881.0,1.43
13883.0,1.38
13885.0,1.4
13887.0,1.35
13889.0,1.32
13891.0,1.38
13893.0,1.47
13895.0,1.41
13896.0,1.49
13898.0,1.4
13900.0,1.51
13902.0,1.5
13904.0,1.47
13906.0,1.43
13908.0,1.44
13911.0,1.48
13913.0,1.57
13915.0,1.61
13917.0,1.64
13919.0,1.57
13921.0,1.56
13923.0,1.54
13925.0,1.63
13927.0,1.59
13929.0,1.54
13931.0,1.7
13933.0,1.67
13935.0,1.7
13937.0,1.75
13938.0,1.62
13940.0,1.6
13942.0,1.69
13944.0,1.69
13946.0,1.59
13948.0,1.51
13950.0,1.59
13953.0,1.67
13955.0,1.58
13957.0,1.65
13959.0,1.65
13961.0,1.75
13963.0,1.7
13965.0,1.65
13967.0,1.7
13969.0,1.62
13971.0,1.62
13973.0,1.59
13975.0,1.75
13977.0,1.72
13979.0,1.59
13980.0,1.63
13982.0,1.55
13984.0,1.56
13986.0,1.49
13988.0,1.35
13990.0,1.36
13992.0,1.52
13995.0,1.53
13997.0,1.63
13999.0,1.55
14001.0,1.63
14003.0,1.57
14005.0,1.44
14007.0,1.45
14009.0,1.45
14011.0,1.51
14013.0,1.49
14015.0,1.59
14017.0,1.56
14019.0,1.51
14021.0,1.51
14023.0,1.49
14024.0,1.59
14026.0,1.65
14028.0,1.58
14030.0,1.65
14032.0,1.77
14034.0,1.74
14036.0,1.65
14039.0,1.57
14041.0,1.58
14043.0,1.57
14045.0,1.61
14047.0,1.67
14049.0,1.56
14051.0,1.57
14053.0,1.51
14055.0,1.5
14057.0,1.46
14059.0,1.42
14061.0,1.59
14063.0,1.49
14065.0,3.3
14066.0,3.3
14068.0,3.3
14070.0,3.3
14072.0,3.3
14074.0,3.3
14076.0,3.23
14078.0,2.28
14081.0,1.53
14083.0,1.06
14085.0,0.7
14087.0,0.34
14089.0,0.17
14091.0,0.14
14093.0,0.14
14095.0,0.09
14097.0,0.12
14099.0,0.07
14101.0,0.15
14103.0,0.11
14105.0,0.1
14107.0,0.15
14109.0,0.18
14110.0,0.25
14112.0,0.34
14114.0,0.38
14116.0,0.52
14118.0,0.44
14120.0,0.53
14123.0,0.7
14125.0,0.7
14127.0,0.76
14129.0,0.85
14131.0,1.12
14133.0,1.27
14135.0,1.4
14137.0,1.34
14139.0,1.31
14141.0,1.32
14143.0,1.37
14145.0,1.49
14147.0,1.5
14149.0,1.4
14151.0,1.54
14152.0,1.51
14154.0,1.45
14156.0,1.57
14158.0,1.55
14160.0,1.55
14162.0,1.45
14164.0,1.45
14167.0,1.43
14169.0,1.33
14171.0,1.37
14173.0,1.45
14175.0,1.62
14177.0,1.66
14179.0,1.52
14181.0,1.65
14183.0,1.99
14185.0,1.68
14187.0,1.55
14189.0,1.42
14191.0,1.47
14193.0,1.4
14194.0,1.54
14196.0,1.62
14198.0,1.55
14200.0,1.59
14202.0,1.47
14204.0,1.47
14206.0,1.57
14209.0,1.53
14211.0,1.59
14213.0,1.57
14215.0,1.6
14217.0,1.6
14219.0,1.45
14221.0,1.49
14223.0,1.42
14225.0,1.48
14227.0,1.54
14229.0,1.42
14231.0,1.43
14233.0,1.45
14235.0,1.52
14237.0,1.64
14238.0,1.52
14240.0,1.62
14242.0,1.68
14244.0,1.63
14246.0,1.61
14248.0,1.53
14251.0,1.57
14253.0,1.57
14255.0,1.57
14257.0,1.64
14259.0,1.54
14261.0,1.62
14263.0,1.67
14265.0,1.65
14267.0,1.66
14269.0,1.57
14271.0,1.54
14273.0,1.65
14275.0,1.65
14277.0,1.7
14279.0,1.59
14280.0,1.77
14282.0,1.71
14284.0,1.63
14286.0,1.47
14288.0,1.44
14290.0,1.5
14292.0,1.59
14295.0,1.55
14297.0,1.52
14299.0,1.43
14301.0,1.54
14303.0,1.5
14305.0,1.43
14307.0,1.44
14309.0,1.41
14311.0,1.46
14313.0,1.55
14315.0,1.55
14317.0,1.65
14319.0,1.53
14321.0,1.49
14322.0,1.45
14324.0,1.52
14326.0,1.5
14328.0,1.4
14330.0,1.53
14332.0,1.59
14334.0,1.58
14337.0,1.66
14339.0,1.58
14341.0,1.61
14343.0,1.54
14345.0,1.48
14347.0,1.49
14349.0,1.29
14351.0,1.27
14353.0,1.29
14355.0,1.24
14357.0,1.2
14359.0,1.09
14361.0,1.15
14363.0,1.13
14365.0,1.16
14366.0,1.21
14368.0,1.06
14370.0,1.12
14372.0,1.11
14374.0,1.24
14376.0,1.24
14379.0,1.16
14381.0,1.2
14383.0,1.16
14385.0,1.29
14387.0,1.27
14389.0,1.11
14391.0,1.24
14393.0,1.29
14395.0,1.3
14397.0,1.33
14399.0,1.2
14401.0,1.21
14403.0,1.22
14405.0,1.15
14407.0,1.09
14408.0,1.11
14410.0,1.18
14412.0,1.17
14414.0,1.32
14416.0,1.34
14418.0,1.29
14420.0,1.33
14423.0,1.26
14425.0,1.29
14427.0,1.28
14429.0,1.22
14431.0,1.28
14433.0,1.22
14435.0,1.38
14437.0,1.32
14439.0,1.32
14441.0,1.44
14443.0,1.4
14445.0,1.45
14447.0,1.42
14449.0,1.33
14450.0,1.39
14452.0,1.36
14454.0,1.35
14456.0,1.32
14458.0,1.26
14460.0,1.31
14462.0,1.3
14465.0,1.3
14467.0,1.33
14469.0,1.33
14471.0,1.32
14473.0,1.36
14475.0,1.37
14477.0,1.37
14479.0,1.28
14481.0,1.3
14483.0,1.49
14485.0,1.56
14487.0,1.57
14489.0,1.59
14491.0,1.72
14493.0,1.78
14494.0,1.79
14496.0,1.79
14498.0,1.66
14500.0,1.73
14502.0,1.68
14504.0,1.63
14507.0,1.63
14509.0,1.65
14511.0,1.67
14513.0,1.77
14515.0,1.86
14517.0,1.88
14519.0,1.83
14521.0,1.86
14523.0,1.79
14525.0,1.82
14527.0,1.8
14529.0,1.67
14531.0,1.73
14533.0,1.85
14535.0,1.93
14536.0,1.82
14538.0,1.73
14540.0,1.7
14542.0,1.71
14544.0,1.67
14546.0,1.63
14548.0,1.58
14551.0,1.71
14553.0,1.68
14555.0,1.62
14557.0,1.7
14559.0,1.66
14561.0,1.68
14563.0,1.63
14565.0,1.59
14567.0,1.53
14569.0,1.42
14571.0,1.47
14573.0,1.48
14575.0,1.71
14577.0,1.59
14578.0,1.55
14580.0,1.62
14582.0,1.69
14584.0,1.58
14586.0,1.56
14588.0,1.54
14590.0,1.71
14593.0,1.67
14595.0,1.81
14597.0,1.81
14599.0,1.73
14601.0,1.8
14603.0,1.73
14605.0,1.69
14607.0,1.73
14609.0,1.66
14611.0,1.77
14613.0,1.77
14615.0,1.82
14617.0,1.75
14619.0,1.66
14621.0,1.68
14622.0,1.63
14624.0,1.78
14626.0,1.65
14628.0,1.56
14630.0,1.67
14632.0,1.7
14635.0,1.7
14637.0,1.71
14639.0,1.64
14641.0,1.61
14643.0,1.48
14645.0,1.39
14647.0,1.26
14649.0,1.25
14651.0,1.33
14653.0,1.3
14655.0,1.3
14657.0,1.38
14659.0,1.35
14661.0,1.46
14663.0,1.54
14664.0,1.4
14666.0,1.35
14668.0,1.28
14670.0,1.35
14672.0,1.33
14674.0,1.47
14676.0,1.42
14679.0,1.4
14681.0,1.45
14683.0,1.48
14685.0,1.48
14687.0,1.4
14689.0,1.35
14691.0,1.49
14693.0,1.56
14695.0,3.3
14697.0,3.3
14699.0,3.3
14701.0,3.27
14703.0,2.71
14705.0,2.24
14706.0,1.94
14708.0,1.65
14710.0,1.67
14712.0,1.58
14714.0,1.41
14716.0,1.35
14718.0,1.29
14721.0,1.23
14723.0,1.33
14725.0,1.44
14727.0,1.3
14729.0,1.24
14731.0,1.34
14733.0,1.37
14735.0,1.41
14737.0,1.3
14739.0,1.28
14741.0,1.28
14743.0,1.27
14745.0,1.28
14747.0,1.19
14749.0,1.24
14750.0,1.24
14752.0,1.23
14754.0,1.31
14756.0,1.39
14758.0,1.48
14760.0,1.5
14763.0,1.52
14765.0,1.56
14767.0,1.53
14769.0,1.48
14771.0,1.47
14773.0,1.53
14775.0,1.7
14777.0,1.67
14779.0,1.6
14781.0,1.64
14783.0,1.6
14785.0,1.62
14787.0,1.49
14789.0,1.44
14791.0,1.52
14792.0,1.53
14794.0,1.54
14796.0,1.51
14798.0,1.46
14800.0,1.49
14802.0,1.45
14804.0,1.43
14807.0,1.4
14809.0,1.43
14811.0,1.46
14813.0,1.49
14815.0,1.63
14817.0,1.55
14819.0,1.49
14821.0,1.55
14823.0,1.61
14825.0,1.62
14827.0,1.5
14829.0,1.53
14831.0,1.5
14833.0,1.5
14834.0,1.52
14836.0,1.43
14838.0,1.4
14840.0,1.53
14842.0,1.48
14844.0,1.48
14846.0,1.45
14849.0,1.42
14851.0,1.45
14853.0,1.45
14855.0,1.8
14857.0,1.65
14859.0,1.56
14861.0,1.59
14863.0,1.56
14865.0,1.59
14867.0,1.57
14869.0,1.49
14871.0,1.55
14873.0,1.55
14875.0,1.65
14877.0,1.59
14878.0,1.61
14880.0,1.58
14882.0,1.58
14884.0,1.58
14886.0,1.55
14888.0,1.47
14891.0,1.54
14893.0,1.53
14895.0,1.65
14897.0,1.6
14899.0,1.47
14901.0,1.56
14903.0,1.54
14905.0,1.49
14907.0,1.47
14909.0,1.41
14911.0,1.36
14913.0,2.11
14915.0,1.87
14917.0,1.62
14919.0,1.47
14920.0,1.5
14922.0,1.43
14924.0,1.42
14926.0,1.44
14928.0,1.43
14930.0,1.45
14932.0,1.48
14935.0,1.51
14937.0,1.4
14939.0,1.38
14941.0,1.38
14943.0,1.38
14945.0,1.47
14947.0,1.39
14949.0,1.33
14951.0,1.34
14953.0,1.34
14955.0,1.37
14957.0,1.36
14959.0,1.34
14961.0,1.33
14962.0,1.86
14964.0,2.67
14966.0,1.77
14968.0,1.38
14970.0,1.27
14972.0,1.24
14974.0,1.19
14977.0,1.12
14979.0,1.21
14981.0,1.19
14983.0,1.29
14985.0,1.25
14987.0,1.13
14989.0,1.2
14991.0,1.26
14993.0,1.2
14995.0,1.13
14997.0,1.02
14999.0,1.01
15001.0,0.98
15003.0,0.96
15005.0,0.98
15006.0,0.94
15008.0,1.02
15010.0,1.18
15012.0,1.3
15014.0,1.32
15016.0,1.22
15019.0,1.2
15021.0,1.09
15023.0,1.12
15025.0,1.2
15027.0,1.14
15029.0,1.14
15031.0,1.25
15033.0,1.21
15035.0,1.14
15037.0,1.05
15039.0,1.06
15041.0,1.2
15043.0,1.22
15045.0,1.19
15047.0,1.16
15048.0,1.23
15050.0,1.28
15052.0,1.3
15054.0,1.38
15056.0,1.41
15058.0,1.42
15060.0,1.52
15063.0,1.59
15065.0,1.58
15067.0,1.5
15069.0,1.52
15071.0,1.56
15073.0,1.64
15075.0,1.68
15077.0,1.53
15079.0,1.42
15081.0,1.4
15083.0,1.31
15085.0,1.2
15087.0,1.19
15089.0,1.2
15090.0,1.31
15092.0,1.33
15094.0,1.17
15096.0,1.12
15098.0,1.18
15100.0,1.28
15102.0,1.25
15105.0,1.2
15107.0,1.13
15109.0,1.04
15111.0,1.04
15113.0,1.01
15115.0,0.96
15117.0,0.88
15119.0,0.86
15121.0,0.77
15123.0,0.75
15125.0,0.85
15127.0,0.75
15129.0,0.89
15131.0,0.85
15133.0,0.82
15134.0,0.91
15136.0,0.85
15138.0,0.87
15140.0,0.94
15142.0,1.0
15144.0,0.94
15147.0,0.89
15149.0,0.95
15151.0,0.92
15153.0,0.87
15155.0,0.89
15157.0,0.88
15159.0,0.99
15161.0,1.27
15163.0,1.25
15165.0,1.15
15167.0,1.14
15169.0,1.25
15171.0,1.3
15173.0,1.43
15175.0,1.36
15176.0,1.23
15178.0,1.25
15180.0,1.21
15182.0,1.25
15184.0,1.27
15186.0,1.27
15188.0,1.3
15191.0,1.4
15193.0,1.47
15195.0,1.44
15197.0,1.2
15199.0,1.15
15201.0,1.18
15203.0,1.22
15205.0,1.3
15207.0,1.26
15209.0,1.35
15211.0,1.39
15213.0,1.33
15215.0,1.42
15217.0,1.26
15218.0,1.29
15220.0,1.32
15222.0,3.3
15224.0,3.3
15226.0,3.3
15228.0,2.79
15230.0,2.14
15233.0,1.76
15235.0,1.41
15237.0,1.16
15239.0,1.18
15241.0,0.61
15243.0,0.0
15245.0,0.0
15247.0,0.0
15249.0,0.0
15251.0,0.0
15253.0,0.0
15255.0,0.0
15257.0,0.0
15259.0,0.02
15261.0,0.09
15262.0,0.18
15264.0,0.28
15266.0,0.16
15268.0,0.11
15270.0,0.33
15272.0,0.49
15275.0,0.68
15277.0,0.77
15279.0,0.9
15281.0,1.09
15283.0,1.27
15285.0,1.33
15287.0,1.19
15289.0,1.18
15291.0,1.31
15293.0,1.39
15295.0,1.6
15297.0,1.45
15299.0,1.46
15301.0,1.58
15303.0,1.49
15304.0,1.43
15306.0,1.39
15308.0,1.37
15310.0,1.24
15312.0,1.27
15314.0,1.33
15316.0,1.16
15319.0,1.17
15321.0,1.18
15323.0,1.14
15325.0,1.12
15327.0,1.04
15329.0,1.05
15331.0,0.96
15333.0,1.0
15335.0,1.01
15337.0,0.88
15339.0,0.79
15341.0,0.72
15343.0,0.62
15345.0,0.63
15346.0,0.43
15348.0,0.35
15350.0,0.46
15352.0,0.45
15354.0,0.49
15356.0,0.54
15358.0,0.65
15361.0,0.81
15363.0,0.72
15365.0,0.72
15367.0,0.62
15369.0,0.55
15371.0,0.55
15373.0,0.65
15375.0,0.9
15377.0,0.89
15379.0,0.93
15381.0,0.96
15383.0,1.0
15385.0,1.16
15387.0,1.28
15389.0,1.34
15390.0,1.32
15392.0,1.25
15394.0,1.44
15396.0,1.41
15398.0,1.51
15400.0,1.62
15403.0,3.3
15405.0,3.3
15407.0,3.3
15409.0,3.3
15411.0,3.3
15413.0,3.3
15415.0,3.3
15417.0,3.3
15419.0,2.8
15421.0,2.39
15423.0,1.6
15425.0,1.0
15427.0,0.6
15429.0,0.39
15431.0,0.25
15432.0,0.2
15434.0,0.16
15436.0,0.08
15438.0,0.28
15440.0,0.38
15442.0,0.49
15444.0,0.51
15447.0,0.53
15449.0,0.93
15451.0,1.03
15453.0,0.99
15455.0,1.16
15457.0,1.16
15459.0,1.35
15461.0,1.38
15463.0,1.37
15465.0,1.29
15467.0,1.21
15469.0,1.27
15471.0,1.25
15473.0,1.36
15474.0,1.55
15476.0,1.63
15478.0,1.79
15480.0,1.94
15482.0,2.76
15484.0,2.43
15486.0,2.09
15489.0,2.02
15491.0,2.15
15493.0,2.32
15495.0,2.41
15497.0,2.34
15499.0,2.46
15501.0,2.47
15503.0,2.3
15505.0,2.29
15507.0,2.32
15509.0,2.38
15511.0,2.46
15513.0,2.48
15515.0,2.45
15517.0,2.38
15518.0,2.36
15520.0,2.31
15522.0,2.45
15524.0,2.52
15526.0,2.39
15528.0,2.45
15531.0,2.65
15533.0,2.6
15535.0,2.62
15537.0,2.43
15539.0,2.39
15541.0,2.38
15543.0,2.43
15545.0,2.41
15547.0,2.31
15549.0,2.38
15551.0,2.45
15553.0,2.34
15555.0,2.28
15557.0,2.2
15559.0,2.23
15560.0,2.22
15562.0,2.15
15564.0,2.09
15566.0,1.97
15568.0,1.92
15570.0,1.89
15572.0,1.93
15575.0,2.06
15577.0,1.95
15579.0,2.11
15581.0,2.12
15583.0,2.15
15585.0,2.43
15587.0,2.09
15589.0,1.92
15591.0,1.94
15593.0,1.95
15595.0,2.05
15597.0,1.9
15599.0,1.85
15601.0,1.76
15602.0,1.68
15604.0,1.58
15606.0,1.45
15608.0,1.55
15610.0,1.57
15612.0,1.53
15614.0,1.55
15617.0,1.5
15619.0,1.64
15621.0,1.78
15623.0,1.79
15625.0,1.67
15627.0,1.5
15629.0,1.54
15631.0,1.52
15633.0,1.57
15635.0,1.53
15637.0,1.41
15639.0,1.34
15641.0,3.3
15643.0,3.21
15645.0,2.27
15646.0,1.59
15648.0,1.35
15650.0,1.26
15652.0,1.17
15654.0,1.29
15656.0,1.1
15659.0,1.24
15661.0,1.45
15663.0,1.46
15665.0,1.57
15667.0,1.49
15669.0,1.55
15671.0,1.46
15673.0,1.53
15675.0,1.62
15677.0,1.56
15679.0,1.69
15681.0,1.6
15683.0,1.52
15685.0,1.52
15687.0,1.38
15688.0,1.4
15690.0,1.42
15692.0,1.38
15694.0,1.39
15696.0,1.25
15698.0,1.21
15700.0,1.13
15703.0,0.99
15705.0,1.0
15707.0,0.92
15709.0,0.99
15711.0,0.99
15713.0,1.04
15715.0,1.11
15717.0,1.09
15719.0,1.19
15721.0,1.1
15723.0,1.09
15725.0,1.17
15727.0,1.17
15729.0,1.3
15730.0,1.32
15732.0,1.34
15734.0,1.37
15736.0,1.47
15738.0,1.57
15740.0,1.73
15742.0,1.82
15745.0,1.83
15747.0,1.74
15749.0,1.66
15751.0,1.62
15753.0,1.58
15755.0,1.56
15757.0,1.47
15759.0,1.57
15761.0,1.57
15763.0,1.55
15765.0,1.59
15767.0,1.43
15769.0,1.31
15771.0,1.27
15773.0,1.31
15774.0,1.42
15776.0,1.34
15778.0,1.48
15780.0,1.64
15782.0,1.64
15784.0,1.57
15787.0,1.47
15789.0,1.65
15791.0,1.77
15793.0,1.87
15795.0,1.93
15797.0,1.79
15799.0,1.87
15801.0,1.92
15803.0,1.83
15805.0,1.87
15807.0,1.62
15809.0,1.48
15811.0,1.46
15813.0,1.47
15815.0,1.45
15816.0,1.33
15818.0,1.45
15820.0,1.68
15822.0,1.61
15824.0,1.39
15826.0,1.29
15828.0,1.32
15831.0,1.4
15833.0,1.37
15835.0,1.3
15837.0,1.2
15839.0,1.28
15841.0,1.31
15843.0,1.36
15845.0,1.39
15847.0,1.3
15849.0,1.35
15851.0,1.42
15853.0,1.5
15855.0,1.66
15857.0,1.58
15858.0,1.61
15860.0,1.62
15862.0,1.6
15864.0,1.55
15866.0,1.46
15868.0,1.49
15870.0,1.45
15873.0,1.59
15875.0,1.66
15877.0,1.61
15879.0,3.3
15881.0,3.3
15883.0,2.57
15885.0,1.97
15887.0,1.62
15889.0,1.52
15891.0,1.54
15893.0,1.51
15895.0,1.47
15897.0,1.42
15899.0,1.49
15901.0,1.52
15902.0,1.4
15904.0,1.46
15906.0,1.4
15908.0,1.45
15910.0,1.43
15912.0,1.57
15915.0,1.65
15917.0,1.65
15919.0,1.68
15921.0,1.67
15923.0,1.67
15925.0,1.69
15927.0,1.6
15929.0,1.64
15931.0,1.61
15933.0,1.56
15935.0,1.58
15937.0,1.5
15939.0,1.58
15941.0,1.58
15943.0,1.43
15944.0,1.32
15946.0,1.23
15948.0,1.33
15950.0,1.28
15952.0,1.18
15954.0,1.22
15956.0,1.2
15959.0,1.26
15961.0,1.3
15963.0,1.29
15965.0,1.3
15967.0,1.17
15969.0,1.15
15971.0,1.22
15973.0,1.31
15975.0,1.31
15977.0,0.81
15979.0,0.73
15981.0,0.71
15983.0,0.8
15985.0,0.77
15986.0,0.74
15988.0,0.82
15990.0,0.88
15992.0,0.94
15994.0,1.02
15996.0,0.99
15998.0,1.14
16001.0,1.11
16003.0,1.12
16005.0,1.18
16007.0,1.18
16009.0,1.22
16011.0,1.4
16013.0,1.38
16015.0,1.46
16017.0,1.35
16019.0,1.32
16021.0,1.35
16023.0,1.41
16025.0,1.33
16027.0,1.34
16029.0,1.49
16030.0,1.55
16032.0,1.69
16034.0,1.67
16036.0,1.61
16038.0,1.65
16040.0,1.71
16043.0,1.64
16045.0,1.65
16047.0,1.62
16049.0,1.66
16051.0,1.65
16053.0,1.67
16055.0,1.65
16057.0,1.68
16059.0,1.71
16061.0,1.67
16063.0,1.66
16065.0,1.61
16067.0,1.46
16069.0,1.5
16071.0,1.55
16072.0,1.64
16074.0,1.7
16076.0,1.71
16078.0,1.77
16080.0,1.67
16082.0,1.75
16084.0,1.7
16087.0,1.6
16089.0,1.73
16091.0,1.66
16093.0,1.71
16095.0,1.73
16097.0,1.69
16099.0,1.75
16101.0,1.83
16103.0,1.75
16105.0,1.74
16107.0,1.68
16109.0,1.71
16111.0,1.62
16113.0,1.68
16114.0,1.71
16116.0,1.66
16118.0,1.72
16120.0,1.68
16122.0,1.75
16124.0,1.67
16126.0,1.59
16129.0,1.6
16131.0,1.61
16133.0,1.7
16135.0,1.83
16137.0,1.8
16139.0,1.81
16141.0,1.75
16143.0,1.68
16145.0,1.65
16147.0,1.48
16149.0,1.58
16151.0,1.63
16153.0,1.8
16155.0,3.3
16157.0,3.3
16158.0,2.7
16160.0,2.0
16162.0,1.62
16164.0,1.41
16166.0,1.26
16168.0,1.2
16171.0,1.3
16173.0,1.3
16175.0,1.24
16177.0,1.13
16179.0,1.15
16181.0,1.21
16183.0,1.26
16185.0,1.08
16187.0,1.02
16189.0,1.19
16191.0,1.25
16193.0,1.27
16195.0,1.33
16197.0,1.29
16199.0,1.38
16200.0,1.39
16202.0,1.44
16204.0,1.44
16206.0,1.44
16208.0,1.53
16210.0,1.56
16212.0,1.57
16215.0,1.54
16217.0,1.49
16219.0,1.57
16221.0,1.72
16223.0,1.8
16225.0,1.8
16227.0,1.5
16229.0,1.36
16231.0,1.47
16233.0,1.52
16235.0,1.44
16237.0,1.4
16239.0,1.43
16241.0,1.43
16242.0,1.44
16244.0,1.3
16246.0,1.29
16248.0,1.48
16250.0,1.47
16252.0,1.47
16254.0,1.51
16257.0,1.52
16259.0,1.54
16261.0,1.49
16263.0,1.49
16265.0,1.36
16267.0,1.21
16269.0,1.09
16271.0,0.9
16273.0,0.93
16275.0,0.94
16277.0,1.02
16279.0,1.04
16281.0,1.1
16283.0,1.16
16285.0,1.14
16286.0,1.13
16288.0,1.21
16290.0,1.24
16292.0,1.35
16294.0,1.34
16296.0,1.29
16299.0,1.34
16301.0,1.26
16303.0,1.17
16305.0,1.2
16307.0,1.19
16309.0,1.28
16311.0,1.34
16313.0,1.4
16315.0,1.34
16317.0,1.37
16319.0,1.42
16321.0,1.32
16323.0,1.47
16325.0,1.4
16327.0,1.27
16328.0,1.35
16330.0,1.41
16332.0,1.48
16334.0,1.44
16336.0,1.43
16338.0,1.59
16340.0,1.65
16343.0,1.55
16345.0,1.43
16347.0,1.35
16349.0,1.5
16351.0,1.47
16353.0,1.36
16355.0,1.35
16357.0,1.31
16359.0,1.32
16361.0,1.32
16363.0,1.31
16365.0,1.28
16367.0,1.23
16369.0,1.32
16370.0,1.36
16372.0,3.17
16374.0,3.3
16376.0,3.23
16378.0,2.49
16380.0,1.88
16382.0,1.44
16385.0,1.14
16387.0,1.0
16389.0,0.92
16391.0,1.03
16393.0,1.02
16395.0,0.94
16397.0,0.97
16399.0,1.04
16401.0,0.93
16403.0,0.88
16405.0,0.97
16407.0,0.99
16409.0,1.0
16411.0,1.05
16413.0,1.09
16414.0,1.13
16416.0,1.11
16418.0,1.08
16420.0,1.18
16422.0,1.23
16424.0,1.16
16427.0,1.14
16429.0,1.09
16431.0,1.12
16433.0,1.09
16435.0,1.12
16437.0,1.15
16439.0,1.14
16441.0,1.05
16443.0,1.17
16445.0,1.16
16447.0,1.19
16449.0,1.23
16451.0,1.13
16453.0,1.16
16455.0,1.21
16456.0,1.34
16458.0,1.37
16460.0,1.35
16462.0,1.3
16464.0,1.29
16466.0,1.29
16468.0,1.3
16471.0,1.27
16473.0,1.37
16475.0,1.35
16477.0,1.36
16479.0,1.39
16481.0,1.41
16483.0,1.62
16485.0,1.56
16487.0,1.57
16489.0,1.65
16491.0,1.68
16493.0,1.68
16495.0,1.7
16497.0,1.72
16498.0,1.66
16500.0,1.73
16502.0,1.73
16504.0,1.66
16506.0,1.65
16508.0,1.75
16510.0,1.74
16513.0,1.78
16515.0,1.63
16517.0,1.57
16519.0,1.6
16521.0,1.58
16523.0,1.62
16525.0,1.6
16527.0,1.8
16529.0,1.92
16531.0,1.99
16533.0,2.11
16535.0,1.93
16537.0,1.8
16539.0,1.81
16541.0,1.8
16542.0,1.86
16544.0,1.73
16546.0,1.66
16548.0,1.73
16550.0,1.7
16552.0,1.66
16555.0,1.58
16557.0,1.53
16559.0,1.59
16561.0,1.63
16563.0,1.64
16565.0,1.57
16567.0,1.58
16569.0,1.6
16571.0,1.8
16573.0,1.84
16575.0,1.72
16577.0,1.74
16579.0,1.83
16581.0,1.92
16583.0,1.94
16584.0,1.72
16586.0,1.63
16588.0,1.68
16590.0,1.57
16592.0,1.58
16594.0,1.38
16596.0,1.23
16599.0,1.31
16601.0,1.27
16603.0,1.16
16605.0,1.17
16607.0,1.27
16609.0,1.34
16611.0,1.37
16613.0,1.43
16615.0,1.32
16617.0,1.31
16619.0,1.33
16621.0,1.37
16623.0,1.36
16625.0,1.29
16627.0,1.35
16628.0,1.44
16630.0,1.5
16632.0,1.47
16634.0,1.44
16636.0,1.47
16638.0,1.62
16641.0,1.58
16643.0,1.56
16645.0,1.48
16647.0,1.5
16649.0,1.67
16651.0,1.73
16653.0,1.76
16655.0,1.88
16657.0,1.99
16659.0,1.94
16661.0,2.05
16663.0,2.05
16665.0,1.81
16667.0,1.79
16669.0,1.72
16670.0,1.66
16672.0,1.61
16674.0,1.56
16676.0,1.63
16678.0,1.49
16680.0,1.55
16683.0,1.52
16685.0,1.37
16687.0,1.45
16689.0,1.46
16691.0,1.5
16693.0,1.53
16695.0,1.47
16697.0,1.42
16699.0,1.5
16701.0,1.45
16703.0,1.41
16705.0,1.37
16707.0,1.42
16709.0,1.45
16711.0,1.48
16712.0,1.54
16714.0,1.43
16716.0,1.47
16718.0,1.45
16720.0,1.45
16722.0,1.53
16724.0,1.49
16727.0,1.56
16729.0,3.3
16731.0,3.3
16733.0,3.04
16735.0,2.34
16737.0,1.86
16739.0,1.61
16741.0,1.45
16743.0,1.37
16745.0,1.24
16747.0,1.25
16749.0,1.45
16751.0,1.3
16753.0,1.27
16755.0,1.3
16756.0,1.34
16758.0,1.41
16760.0,1.41
16762.0,1.4
16764.0,1.34
16766.0,1.35
16769.0,1.32
16771.0,1.43
16773.0,3.3
16775.0,2.69
16777.0,1.97
16779.0,1.58
16781.0,1.43
16783.0,1.31
16785.0,1.27
16787.0,1.21
16789.0,1.23
16791.0,1.27
16793.0,1.28
16795.0,1.19
16797.0,1.24
16798.0,1.28
16800.0,1.15
16802.0,1.09
16804.0,1.05
16806.0,1.06
16808.0,1.24
16811.0,1.24
16813.0,1.23
16815.0,1.18
16817.0,1.21
16819.0,1.07
16821.0,1.06
16823.0,1.16
16825.0,1.18
16827.0,1.23
16829.0,1.32
16831.0,1.36
16833.0,1.43
16835.0,1.35
16837.0,1.35
16839.0,1.47
16840.0,1.48
16842.0,1.37
16844.0,1.22
16846.0,1.27
16848.0,1.44
16850.0,1.35
16852.0,1.28
16855.0,3.3
16857.0,3.3
16859.0,2.84
16861.0,1.95
16863.0,1.43
16865.0,1.2
16867.0,1.15
16869.0,1.1
16871.0,1.12
16873.0,1.1
16875.0,0.99
16877.0,1.07
16879.0,1.23
16881.0,1.11
16883.0,1.08
16884.0,1.02
16886.0,1.07
16888.0,1.14
16890.0,1.31
16892.0,1.35
16894.0,1.3
16897.0,1.33
16899.0,1.29
16901.0,1.3
16903.0,1.31
16905.0,1.24
16907.0,1.3
16909.0,1.39
16911.0,1.41
16913.0,1.38
16915.0,1.31
16917.0,1.26
16919.0,1.29
16921.0,1.32
16923.0,1.4
16925.0,1.33
16926.0,3.3
16928.0,2.83
16930.0,2.05
16932.0,1.64
16934.0,1.37
16936.0,1.28
16939.0,1.29
16941.0,1.18
16943.0,1.12
16945.0,1.07
16947.0,1.13
16949.0,1.18
16951.0,1.18
16953.0,1.22
16955.0,1.2
16957.0,1.35
16959.0,1.35
16961.0,1.29
16963.0,1.3
16965.0,1.28
16967.0,1.33
16968.0,1.45
16970.0,1.59
16972.0,1.67
16974.0,1.53
16976.0,1.7
16978.0,1.63
16980.0,1.65
16983.0,1.69
16985.0,1.55
16987.0,1.52
16989.0,1.55
16991.0,1.57
16993.0,1.62
16995.0,1.47
16997.0,1.43
16999.0,1.41
17001.0,1.4
17003.0,1.39
17005.0,1.39
17007.0,1.45
17009.0,1.54
17011.0,1.58
17012.0,1.71
17014.0,1.54
17016.0,2.87
17018.0,3.3
17020.0,3.11
17022.0,2.42
17025.0,1.97
17027.0,1.75
17029.0,1.48
17031.0,1.4
17033.0,1.31
17035.0,1.34
17037.0,1.42
17039.0,1.49
17041.0,1.54
17043.0,1.62
17045.0,1.57
17047.0,1.61
17049.0,1.61
17051.0,1.6
17053.0,1.53
17054.0,1.43
17056.0,1.52
17058.0,1.52
17060.0,1.55
17062.0,1.68
17064.0,1.61
17067.0,1.46
17069.0,1.45
17071.0,1.59
17073.0,1.65
17075.0,1.65
17077.0,1.7
17079.0,1.74
17081.0,1.82
17083.0,1.75
17085.0,1.67
17087.0,1.66
17089.0,1.61
17091.0,1.6
17093.0,1.56
17095.0,3.3
17096.0,3.3
17098.0,2.98
17100.0,2.05
17102.0,1.45
17104.0,1.24
17106.0,1.29
17108.0,1.16
17111.0,1.19
17113.0,1.2
17115.0,1.12
17117.0,1.11
17119.0,1.05
17121.0,1.04
17123.0,1.17
17125.0,1.12
17127.0,1.12
17129.0,3.3
17131.0,3.14
17133.0,2.0
17135.0,1.28
17137.0,1.06
17139.0,0.85
17140.0,0.89
17142.0,0.85
17144.0,0.79
17146.0,0.8
17148.0,0.75
17150.0,0.75
17153.0,0.81
17155.0,0.8
17157.0,0.83
17159.0,0.62
17161.0,0.61
17163.0,0.7
17165.0,0.67
17167.0,0.73
17169.0,0.75
17171.0,0.79
17173.0,0.94
17175.0,0.85
17177.0,0.86
17179.0,0.88
17181.0,0.99
17182.0,1.03
17184.0,1.15
17186.0,1.25
17188.0,1.36
17190.0,1.37
17192.0,1.26
17195.0,1.16
17197.0,1.37
17199.0,1.38
17201.0,1.27
17203.0,1.32
17205.0,1.65
17207.0,2.97
17209.0,1.97
17211.0,1.55
17213.0,1.3
17215.0,1.03
17217.0,1.05
17219.0,1.05
17221.0,1.24
17223.0,1.25
17225.0,1.24
17226.0,1.51
17228.0,1.82
17230.0,1.82
17232.0,1.73
17234.0,1.65
17236.0,1.75
17239.0,1.99
17241.0,1.78
17243.0,1.69
17245.0,1.48
17247.0,1.53
17249.0,1.47
17251.0,1.45
17253.0,1.47
17255.0,1.36
17257.0,1.45
17259.0,1.78
17261.0,3.3
17263.0,2.67
17265.0,2.13
17267.0,2.05
17268.0,1.96
17270.0,1.94
17272.0,1.95
17274.0,2.02
17276.0,2.21
17278.0,2.2
17281.0,2.15
17283.0,2.11
17285.0,1.91
17287.0,1.93
17289.0,1.96
17291.0,1.97
17293.0,1.9
17295.0,1.78
17297.0,1.85
17299.0,1.99
17301.0,1.92
17303.0,1.74
17305.0,1.77
17307.0,1.77
17309.0,1.71
17310.0,1.63
17312.0,1.72
17314.0,2.22
17316.0,3.3
17318.0,3.29
17320.0,2.65
17323.0,2.13
17325.0,1.79
17327.0,1.69
17329.0,1.63
17331.0,1.61
17333.0,1.64
17335.0,1.56
17337.0,1.55
17339.0,1.39
17341.0,1.38
17343.0,1.38
17345.0,1.27
17347.0,1.21
17349.0,1.03
17351.0,0.87
17353.0,0.97
17354.0,0.84
17356.0,1.34
17358.0,1.35
17360.0,1.03
17362.0,1.04
17364.0,0.86
17367.0,0.69
17369.0,0.35
17371.0,0.19
17373.0,0.22
17375.0,0.12
17377.0,0.18
17379.0,0.11
17381.0,0.1
17383.0,0.09
17385.0,0.37
17387.0,0.68
17389.0,0.65
17391.0,0.52
17393.0,0.21
17395.0,0.0
17396.0,0.44
17398.0,0.31
17400.0,0.19
17402.0,0.65
17404.0,1.21
17406.0,1.21
17409.0,1.02
17411.0,1.07
17413.0,1.18
17415.0,1.08
17417.0,0.75
17419.0,0.61
17421.0,0.93
17423.0,0.86
17425.0,0.56
17427.0,0.5
17429.0,0.31
17431.0,0.22
17433.0,0.1
17435.0,0.0
17437.0,0.0
17438.0,0.0
17440.0,0.0
17442.0,0.0
17444.0,1.13
17446.0,3.3
17448.0,2.07
17451.0,0.76
17453.0,0.01
17455.0,0.0
17457.0,0.0
17459.0,0.0
17461.0,0.0
17463.0,0.0
17465.0,0.0
17467.0,0.09
17469.0,1.99
17471.0,0.0
17473.0,0.0
17475.0,0.0
17477.0,0.0
17479.0,0.0
17481.0,0.0
17482.0,0.0
17484.0,0.0
17486.0,0.1
17488.0,0.35
17490.0,0.75
17492.0,0.78
17495.0,0.91
17497.0,1.13
17499.0,1.09
17501.0,1.02
17503.0,0.96
17505.0,0.96
17507.0,1.01
17509.0,1.22
17511.0,1.24
17513.0,1.23
17515.0,0.93
17517.0,0.76
17519.0,0.71
17521.0,0.54
17523.0,0.11
17524.0,0.0
17526.0,0.0
17528.0,0.12
17530.0,0.23
17532.0,0.24
17534.0,0.22
17537.0,0.32
17539.0,0.36
17541.0,0.47
17543.0,0.84
17545.0,1.07
17547.0,3.3
17549.0,3.3
17551.0,2.09
17553.0,1.42
17555.0,1.28
17557.0,0.98
17559.0,0.69
17561.0,0.56
17563.0,0.78
17565.0,0.7
17566.0,0.64
17568.0,0.36
17570.0,0.35
17572.0,0.51
17574.0,0.71
17576.0,0.72
17579.0,0.4
17581.0,0.24
17583.0,0.29
17585.0,0.3
17587.0,0.19
17589.0,0.38
17591.0,0.33
17593.0,0.21
17595.0,0.38
17597.0,0.46
17599.0,0.54
17601.0,0.41
17603.0,0.45
17605.0,0.67
17607.0,1.5
17609.0,1.48
17610.0,1.63
17612.0,1.84
17614.0,1.96
17616.0,1.99
17618.0,1.88
17620.0,1.8
17623.0,2.29
17625.0,3.03
17627.0,3.3
17629.0,3.3
17631.0,3.3
17633.0,3.3
17635.0,3.3
17637.0,3.3
17639.0,3.3
17641.0,3.3
17643.0,3.3
17645.0,3.3
17647.0,3.3
17649.0,3.3
17651.0,3.3
17652.0,3.3
17654.0,3.3
17656.0,3.3
17658.0,3.3
17660.0,3.3
17662.0,3.3
17665.0,3.3
17667.0,3.3
17669.0,3.25
17671.0,3.2
17673.0,3.12
17675.0,3.14
17677.0,3.17
17679.0,3.13
17681.0,3.08
17683.0,2.86
17685.0,2.65
17687.0,2.57
17689.0,2.5
17691.0,2.51
17693.0,2.39
17694.0,2.48
17696.0,2.6
17698.0,2.43
17700.0,2.42
17702.0,2.49
17704.0,2.61
17707.0,2.7
17709.0,2.83
17711.0,2.93
17713.0,2.91
17715.0,2.89
17717.0,2.78
17719.0,2.68
17721.0,2.68
17723.0,2.65
17725.0,2.53
17727.0,2.51
17729.0,3.3
17731.0,3.3
17733.0,3.3
17735.0,2.95
17737.0,2.64
17738.0,2.27
17740.0,2.07
17742.0,1.68
17744.0,1.46
17746.0,1.41
17748.0,1.18
17751.0,1.12
17753.0,1.16
17755.0,1.05
17757.0,1.0
17759.0,1.03
17761.0,1.04
17763.0,1.23
17765.0,1.15
17767.0,1.18
17769.0,1.26
17771.0,1.33
17773.0,1.31
17775.0,1.33
17777.0,1.29
17779.0,1.27
17780.0,1.36
17782.0,1.31
17784.0,1.27
17786.0,1.29
17788.0,1.38
17790.0,1.45
17793.0,1.35
17795.0,1.42
17797.0,1.55
17799.0,1.62
17801.0,1.55
17803.0,1.43
17805.0,1.28
17807.0,1.33
17809.0,1.36
17811.0,1.33
17813.0,1.31
17815.0,1.33
17817.0,1.44
17819.0,1.52
17821.0,1.56
17822.0,1.51
17824.0,1.41
17826.0,1.49
17828.0,1.51
17830.0,1.52
17832.0,1.49
17835.0,1.36
17837.0,1.48
17839.0,1.4
17841.0,1.45
17843.0,1.41
17845.0,1.4
17847.0,1.44
17849.0,1.46
17851.0,1.59
17853.0,1.69
17855.0,1.66
17857.0,1.65
17859.0,1.49
17861.0,1.5
17863.0,1.55
17865.0,1.54
17866.0,1.51
17868.0,1.53
17870.0,1.59
17872.0,1.61
17874.0,1.62
17876.0,1.61
17879.0,1.64
17881.0,3.3
17883.0,3.3
17885.0,2.51
17887.0,2.32
17889.0,1.92
17891.0,1.61
17893.0,1.56
17895.0,1.42
17897.0,1.39
17899.0,1.3
17901.0,1.29
17903.0,1.18
17905.0,1.07
17907.0,1.08
17908.0,1.15
17910.0,1.25
17912.0,1.38
17914.0,1.26
17916.0,1.24
17918.0,1.17
17921.0,1.19
17923.0,1.15
17925.0,1.2
17927.0,1.33
17929.0,1.42
17931.0,1.53
17933.0,1.51
17935.0,1.49
17937.0,1.47
17939.0,1.47
17941.0,1.48
17943.0,1.47
17945.0,1.38
17947.0,1.41
17949.0,1.48
17950.0,1.38
17952.0,1.34
17954.0,1.33
17956.0,1.4
17958.0,1.35
17960.0,1.44
17963.0,1.38
17965.0,1.37
17967.0,1.41
17969.0,1.44
17971.0,1.53
17973.0,1.5
17975.0,1.89
17977.0,1.7
17979.0,1.61
17981.0,1.72
17983.0,1.58
17985.0,1.4
17987.0,1.45
17989.0,1.41
17991.0,1.52
17993.0,1.45
17994.0,1.79
17996.0,1.62
17998.0,1.49
18000.0,1.35
18002.0,1.39
18004.0,1.39
18007.0,1.41
18009.0,1.59
18011.0,1.76
18013.0,1.74
18015.0,1.74
18017.0,1.72
18019.0,1.65
18021.0,1.87
18023.0,3.3
18025.0,3.3
18027.0,3.28
18029.0,2.68
18031.0,2.21
18033.0,1.85
18035.0,1.7
18036.0,1.66
18038.0,1.65
18040.0,1.63
18042.0,1.53
18044.0,1.56
18046.0,1.59
18049.0,1.56
18051.0,1.6
18053.0,1.62
18055.0,1.53
18057.0,1.57
18059.0,1.52
18061.0,1.4
18063.0,1.34
18065.0,1.44
18067.0,1.45
18069.0,1.54
18071.0,2.2
18073.0,1.97
18075.0,1.75
18077.0,1.71
18078.0,1.65
18080.0,1.61
18082.0,1.51
18084.0,1.46
18086.0,1.55
18088.0,1.62
18091.0,1.66
18093.0,1.51
18095.0,1.93
18097.0,2.1
18099.0,1.6
18101.0,1.44
18103.0,1.35
18105.0,1.31
18107.0,1.35
18109.0,1.35
18111.0,1.38
18113.0,3.3
18115.0,3.3
18117.0,2.38
18119.0,1.78
18121.0,1.49
18122.0,1.25
18124.0,1.21
18126.0,1.26
18128.0,1.23
18130.0,1.22
18132.0,1.1
18135.0,1.04
18137.0,1.03
18139.0,1.0
18141.0,1.01
18143.0,0.92
18145.0,0.92
18147.0,1.01
18149.0,0.95
18151.0,1.0
18153.0,0.96
18155.0,1.05
18157.0,1.07
18159.0,1.08
18161.0,1.12
18163.0,1.19
18164.0,1.15
18166.0,1.21
18168.0,1.15
18170.0,1.32
18172.0,1.31
18174.0,1.35
18177.0,1.24
18179.0,1.13
18181.0,1.04
18183.0,1.01
18185.0,1.12
18187.0,1.19
18189.0,1.34
18191.0,1.41
18193.0,1.35
18195.0,1.37
18197.0,1.88
18199.0,3.3
18201.0,3.21
18203.0,2.27
18205.0,1.69
18206.0,1.51
18208.0,1.34
18210.0,1.29
18212.0,1.1
18214.0,1.11
18216.0,1.08
18219.0,1.11
18221.0,1.22
18223.0,1.14
18225.0,1.14
18227.0,1.18
18229.0,1.24
18231.0,1.36
18233.0,1.32
18235.0,1.22
18237.0,1.32
18239.0,1.22
18241.0,1.23
18243.0,1.14
18245.0,1.13
18247.0,1.27
18249.0,1.31
18250.0,1.36
18252.0,1.34
18254.0,1.36
18256.0,1.42
18258.0,1.32
18260.0,1.34
18263.0,1.31
18265.0,3.3
18267.0,2.58
18269.0,1.92
18271.0,1.66
18273.0,1.46
18275.0,1.43
18277.0,1.33
18279.0,1.35
18281.0,3.3
18283.0,3.3
18285.0,2.74
18287.0,1.9
18289.0,1.44
18291.0,1.33
18292.0,1.16
18294.0,1.16
18296.0,1.34
18298.0,1.29
18300.0,1.24
18302.0,1.15
18305.0,1.18
18307.0,1.19
18309.0,1.17
18311.0,0.91
18313.0,0.46
18315.0,0.28
18317.0,0.09
18319.0,0.06
18321.0,0.05
18323.0,0.07
18325.0,0.21
18327.0,0.35
18329.0,0.52
18331.0,0.61
18333.0,0.61
18334.0,0.64
18336.0,0.63
18338.0,0.63
18340.0,0.63
18342.0,0.7
18344.0,0.82
18347.0,0.97
18349.0,3.3
18351.0,3.2
18353.0,2.25
18355.0,1.65
18357.0,1.29
18359.0,1.23
18361.0,1.17
18363.0,1.11
18365.0,1.11
18367.0,1.15
18369.0,1.29
18371.0,1.43
18373.0,1.36
18375.0,3.3
18377.0,3.24
18378.0,2.36
18380.0,1.74
18382.0,1.46
18384.0,1.41
18386.0,1.44
18388.0,1.39
18391.0,1.38
18393.0,1.34
18395.0,1.36
18397.0,1.41
18399.0,1.32
18401.0,1.33
18403.0,1.32
18405.0,1.32
18407.0,1.31
18409.0,1.37
18411.0,1.33
18413.0,1.27
18415.0,1.28
18417.0,1.35
18419.0,1.33
18420.0,1.46
18422.0,1.37
18424.0,1.54
18426.0,1.61
18428.0,1.78
18430.0,1.73
18433.0,1.73
18435.0,1.77
18437.0,1.89
18439.0,1.94
18441.0,1.95
18443.0,1.93
18445.0,1.99
18447.0,2.05
18449.0,1.97
18451.0,1.94
18453.0,1.92
18455.0,1.93
18457.0,1.99
18459.0,1.93
18461.0,1.75
18462.0,1.59
18464.0,1.61
18466.0,1.59
18468.0,1.55
18470.0,1.61
18472.0,1.54
18475.0,1.54
18477.0,1.62
18479.0,1.54
18481.0,1.48
18483.0,1.55
18485.0,1.45
18487.0,1.52
18489.0,1.62
18491.0,1.69
18493.0,1.55
18495.0,3.3
18497.0,3.3
18499.0,2.68
18501.0,1.91
18503.0,1.52
18505.0,1.31
18506.0,1.23
18508.0,1.15
18510.0,0.99
18512.0,0.89
18514.0,0.86
18516.0,0.84
18519.0,0.89
18521.0,0.38
18523.0,3.28
18525.0,1.86
18527.0,0.67
18529.0,0.18
18531.0,0.04
18533.0,0.0
18535.0,0.0
18537.0,0.02
18539.0,0.09
18541.0,0.2
18543.0,0.22
18545.0,0.29
18547.0,0.39
18548.0,0.35
18550.0,0.45
18552.0,0.55
18554.0,0.62
18556.0,0.63
18558.0,0.71
18561.0,0.7
18563.0,0.7
18565.0,0.77
18567.0,0.72
18569.0,0.88
18571.0,1.04
18573.0,1.05
18575.0,1.19
18577.0,1.25
18579.0,1.27
18581.0,1.21
18583.0,1.02
18585.0,1.02
18587.0,1.19
18589.0,1.47
18590.0,1.49
18592.0,1.42
18594.0,1.55
18596.0,1.57
18598.0,1.65
18600.0,1.97
18603.0,1.9
18605.0,2.34
18607.0,2.22
18609.0,2.4
18611.0,2.59
18613.0,2.71
18615.0,2.89
18617.0,3.17
18619.0,3.28
18621.0,3.29
18623.0,3.04
18625.0,2.87
18627.0,2.91
18629.0,2.75
18631.0,2.59
18633.0,2.2
18634.0,1.96
18636.0,1.78
18638.0,1.65
18640.0,1.65
18642.0,1.53
18644.0,1.54
18647.0,1.37
18649.0,1.23
18651.0,1.22
18653.0,1.12
18655.0,1.17
18657.0,1.15
18659.0,1.05
18661.0,1.05
18663.0,1.03
18665.0,1.04
18667.0,1.1
18669.0,1.17
18671.0,2.15
18673.0,3.3
18675.0,2.92
18676.0,1.93
18678.0,1.41
18680.0,1.17
18682.0,1.34
18684.0,3.3
18686.0,2.19
18689.0,1.31
18691.0,0.95
18693.0,0.75
18695.0,0.65
18697.0,0.72
18699.0,0.66
18701.0,0.71
18703.0,0.76
18705.0,0.93
18707.0,1.01
18709.0,1.03
18711.0,1.01
18713.0,0.97
18715.0,1.0
18717.0,0.95
18718.0,1.11
18720.0,1.22
18722.0,1.19
18724.0,1.31
18726.0,1.33
18728.0,1.37
18731.0,1.43
18733.0,1.22
18735.0,1.2
18737.0,1.3
18739.0,1.26
18741.0,1.27
18743.0,1.21
18745.0,1.3
18747.0,1.43
18749.0,1.36
18751.0,1.31
18753.0,1.3
18755.0,1.35
18757.0,1.4
18759.0,1.54
18761.0,1.52
18762.0,1.4
18764.0,1.42
18766.0,1.28
18768.0,1.41
18770.0,1.5
18772.0,1.56
18775.0,1.75
18777.0,1.78
18779.0,1.74
18781.0,1.66
18783.0,1.43
18785.0,1.39
18787.0,3.29
18789.0,3.3
18791.0,2.82
18793.0,1.99
18795.0,1.61
18797.0,1.55
18799.0,1.41
18801.0,1.42
18803.0,1.3
18804.0,1.29
18806.0,1.25
18808.0,1.28
18810.0,1.29
18812.0,1.33
18814.0,1.45
18817.0,3.3
18819.0,3.3
18821.0,3.04
18823.0,2.11
18825.0,1.67
18827.0,1.46
18829.0,1.4
18831.0,1.22
18833.0,1.04
18835.0,1.05
18837.0,1.1
18839.0,1.16
18841.0,1.12
18843.0,1.04
18845.0,1.09
18846.0,0.99
18848.0,0.92
18850.0,1.03
18852.0,0.99
18854.0,1.11
18856.0,3.3
18859.0,3.3
18861.0,2.93
18863.0,2.12
18865.0,1.64
18867.0,1.4
18869.0,1.29
18871.0,1.42
18873.0,1.26
18875.0,1.29
18877.0,1.21
18879.0,1.08
18881.0,0.92
18883.0,0.88
18885.0,0.94
18887.0,1.05
18889.0,1.06
18890.0,1.15
18892.0,1.14
18894.0,1.24
18896.0,1.17
18898.0,1.17
18900.0,1.22
18903.0,2.23
18905.0,3.3
18907.0,3.3
18909.0,3.3
18911.0,3.3
18913.0,3.29
18915.0,3.08
18917.0,1.93
18919.0,1.27
18921.0,0.9
18923.0,0.64
18925.0,0.67
18927.0,0.78
18929.0,0.76
18931.0,0.72
18932.0,0.59
18934.0,0.62
18936.0,0.77
18938.0,0.82
18940.0,0.89
18942.0,0.79
18945.0,0.95
18947.0,1.01
18949.0,0.9
18951.0,0.93
18953.0,0.9
18955.0,0.99
18957.0,1.05
18959.0,0.97
18961.0,0.95
18963.0,1.22
18965.0,1.27
18967.0,1.1
18969.0,1.2
18971.0,1.21
18973.0,1.03
18974.0,1.1
18976.0,1.15
18978.0,1.18
18980.0,2.41
18982.0,1.85
18984.0,1.44
18987.0,1.3
18989.0,1.74
18991.0,3.3
18993.0,2.98
18995.0,2.11
18997.0,1.61
18999.0,1.28
19001.0,1.13
19003.0,1.0
19005.0,1.03
19007.0,1.03
19009.0,0.95
19011.0,1.04
19013.0,1.0
19015.0,1.06
19017.0,1.12
19018.0,1.21
19020.0,1.15
19022.0,1.03
19024.0,1.06
19026.0,1.12
19028.0,1.36
19031.0,1.42
19033.0,1.26
19035.0,1.26
19037.0,1.37
19039.0,1.47
19041.0,1.49
19043.0,3.3
19045.0,2.9
19047.0,2.06
19049.0,1.63
19051.0,1.45
19053.0,1.48
19055.0,2.34
19057.0,1.65
19059.0,1.34
19060.0,1.25
19062.0,1.15
19064.0,1.13
19066.0,1.18
19068.0,1.15
19070.0,1.17
19073.0,1.14
19075.0,1.21
19077.0,1.15
19079.0,1.22
19081.0,1.22
19083.0,1.15
19085.0,1.2
19087.0,1.26
19089.0,1.3
19091.0,1.35
19093.0,1.27
19095.0,1.31
19097.0,1.24
19099.0,1.22
19101.0,1.23
19102.0,1.21
19104.0,1.3
19106.0,1.45
19108.0,1.54
19110.0,1.57
19112.0,1.55
19115.0,3.07
19117.0,2.91
19119.0,2.18
19121.0,2.91
19123.0,2.21
19125.0,1.84
19127.0,1.71
19129.0,1.7
19131.0,1.49
19133.0,1.38
19135.0,1.35
19137.0,1.4
19139.0,1.43
19141.0,1.46
19143.0,1.35
19145.0,1.38
19146.0,1.49
19148.0,1.45
19150.0,1.47
19152.0,1.81
19154.0,3.3
19156.0,3.3
19159.0,2.75
19161.0,1.85
19163.0,1.33
19165.0,1.12
19167.0,1.04
19169.0,1.02
19171.0,1.13
19173.0,1.03
19175.0,1.44
19177.0,1.28
19179.0,1.21
19181.0,1.13
19183.0,0.99
19185.0,1.08
19187.0,1.14
19188.0,1.17
19190.0,1.26
19192.0,1.16
19194.0,1.22
19196.0,1.23
19198.0,1.24
19201.0,1.22
19203.0,1.24
19205.0,1.3
19207.0,1.34
19209.0,1.43
19211.0,1.44
19213.0,3.22
19215.0,3.3
19217.0,2.37
19219.0,1.71
19221.0,1.33
19223.0,1.09
19225.0,1.14
19227.0,1.11
19229.0,1.11
19230.0,1.13
19232.0,1.12
19234.0,1.21
19236.0,1.27
19238.0,1.38
19240.0,1.34
19243.0,1.27
19245.0,1.36
19247.0,1.45
19249.0,1.41
19251.0,1.48
19253.0,1.54
19255.0,1.68
19257.0,1.7
19259.0,1.6
19261.0,1.43
19263.0,1.35
19265.0,1.39
19267.0,1.43
19269.0,2.27
19271.0,3.3
19273.0,2.82
19274.0,2.12
19276.0,1.69
19278.0,1.48
19280.0,1.24
19282.0,1.07
19284.0,1.12
19287.0,1.11
19289.0,1.11
19291.0,1.14
19293.0,1.05
19295.0,1.21
19297.0,1.2
19299.0,1.14
19301.0,1.21
19303.0,1.16
19305.0,1.18
19307.0,1.07
19309.0,1.06
19311.0,0.92
19313.0,0.84
19315.0,0.92
19316.0,0.89
19318.0,0.96
19320.0,0.97
19322.0,0.91
19324.0,1.61
19326.0,3.3
19329.0,2.81
19331.0,1.68
19333.0,1.17
19335.0,0.94
19337.0,0.83
19339.0,0.9
19341.0,0.98
19343.0,0.89
19345.0,1.03
19347.0,1.0
19349.0,0.99
19351.0,1.05
19353.0,1.08
19355.0,1.18
19357.0,1.01
19358.0,0.87
19360.0,1.35
19362.0,1.55
19364.0,1.18
19366.0,1.06
19368.0,1.17
19371.0,1.28
19373.0,1.23
19375.0,1.3
19377.0,1.31
19379.0,1.25
19381.0,1.15
19383.0,1.0
19385.0,1.52
19387.0,1.5
19389.0,1.41
19391.0,1.39
19393.0,1.37
19395.0,1.49
19397.0,1.5
19399.0,1.55
19401.0,1.56
19402.0,3.3
19404.0,3.19
19406.0,2.37
19408.0,1.95
19410.0,1.73
19412.0,1.53
19415.0,1.5
19417.0,1.41
19419.0,1.47
19421.0,1.42
19423.0,1.48
19425.0,1.6
19427.0,1.67
19429.0,1.69
19431.0,1.67
19433.0,1.64
19435.0,1.45
19437.0,1.16
19439.0,1.1
19441.0,1.18
19443.0,1.17
19444.0,1.34
19446.0,1.44
19448.0,1.41
19450.0,1.5
19452.0,1.53
19454.0,1.61
19457.0,1.55
19459.0,1.51
19461.0,1.51
19463.0,1.46
19465.0,1.4
19467.0,1.35
19469.0,1.39
19471.0,1.37
19473.0,1.34
19475.0,1.4
19477.0,1.41
19479.0,1.47
19481.0,1.45
19483.0,1.39
19485.0,1.45
19487.0,1.48
19488.0,1.59
19490.0,1.5
19492.0,1.38
19494.0,1.46
19496.0,1.36
19499.0,3.3
19501.0,3.3
19503.0,2.53
19505.0,1.9
19507.0,1.61
19509.0,1.51
19511.0,1.27
19513.0,1.1
