time,ch3
1.0,1.77
3.0,1.95
5.0,1.92
7.0,2.01
9.0,1.98
11.0,2.29
13.0,2.35
15.0,2.25
17.0,2.03
19.0,1.98
21.0,1.93
23.0,1.98
25.0,1.92
28.0,2.24
30.0,2.41
32.0,2.55
34.0,2.65
36.0,2.52
37.0,2.19
39.0,2.03
41.0,1.86
43.0,1.99
45.0,2.13
47.0,2.18
49.0,2.33
51.0,2.54
53.0,2.47
55.0,2.37
57.0,1.95
59.0,1.72
61.0,1.74
63.0,1.78
65.0,2.01
67.0,2.22
70.0,2.52
72.0,2.71
74.0,2.65
76.0,2.26
78.0,1.91
80.0,1.94
81.0,1.89
83.0,1.94
85.0,2.08
87.0,2.17
89.0,2.28
91.0,2.46
93.0,2.42
95.0,2.43
97.0,2.17
99.0,2.09
101.0,2.11
103.0,2.1
105.0,2.16
107.0,2.14
109.0,2.24
111.0,2.33
114.0,2.4
116.0,2.41
118.0,2.05
120.0,1.97
122.0,2.08
123.0,1.98
125.0,1.84
127.0,2.07
129.0,2.26
131.0,2.32
133.0,2.25
135.0,2.19
137.0,1.85
139.0,1.69
141.0,1.52
143.0,1.59
145.0,1.79
147.0,1.89
149.0,2.1
151.0,2.3
153.0,2.26
156.0,2.12
158.0,1.66
160.0,1.5
162.0,1.5
164.0,1.56
166.0,1.73
167.0,1.95
169.0,2.19
171.0,2.35
173.0,2.2
175.0,1.92
177.0,1.64
179.0,1.62
181.0,1.6
183.0,1.56
185.0,1.57
187.0,1.65
189.0,1.8
191.0,1.98
193.0,1.85
195.0,1.87
198.0,1.59
200.0,1.52
202.0,1.54
204.0,1.6
206.0,1.62
208.0,1.66
209.0,1.73
211.0,1.81
213.0,1.93
215.0,1.89
217.0,1.52
219.0,1.32
221.0,1.39
223.0,1.34
225.0,1.26
227.0,1.56
229.0,1.71
231.0,1.81
233.0,1.97
235.0,1.91
237.0,1.52
239.0,1.33
242.0,1.21
244.0,1.3
246.0,1.51
248.0,1.61
250.0,1.89
251.0,2.03
253.0,2.12
255.0,1.92
257.0,1.55
259.0,1.37
261.0,1.31
263.0,1.41
265.0,1.47
267.0,1.63
269.0,1.87
271.0,2.1
273.0,1.86
275.0,1.64
277.0,1.39
279.0,1.3
281.0,1.31
284.0,1.4
286.0,1.53
288.0,1.66
290.0,1.77
292.0,1.91
294.0,1.78
295.0,1.72
297.0,1.45
299.0,1.43
301.0,1.51
303.0,1.61
305.0,1.64
307.0,1.58
309.0,1.55
311.0,1.65
313.0,1.72
315.0,1.71
317.0,1.28
319.0,1.29
321.0,1.46
323.0,1.34
326.0,1.35
328.0,1.52
330.0,1.67
332.0,1.8
334.0,1.81
336.0,1.63
337.0,1.31
339.0,1.2
341.0,1.17
343.0,1.27
345.0,1.33
347.0,1.44
349.0,1.78
351.0,1.96
353.0,1.93
355.0,1.75
357.0,1.35
359.0,1.28
361.0,1.19
363.0,1.39
365.0,1.49
367.0,1.64
370.0,1.78
372.0,1.95
374.0,1.94
376.0,1.52
378.0,1.17
379.0,1.21
381.0,1.06
383.0,1.38
385.0,1.44
387.0,1.58
389.0,1.74
391.0,1.79
393.0,1.73
395.0,1.49
397.0,1.26
399.0,1.27
401.0,1.3
403.0,1.45
405.0,1.46
407.0,1.43
409.0,1.47
412.0,1.53
414.0,1.45
416.0,1.24
418.0,1.11
420.0,1.2
422.0,1.24
423.0,1.38
425.0,1.47
427.0,1.72
429.0,1.82
431.0,1.94
433.0,2.05
435.0,1.97
437.0,1.72
439.0,1.53
441.0,1.43
443.0,1.49
445.0,1.7
447.0,1.78
449.0,1.98
451.0,2.01
454.0,2.05
456.0,1.81
458.0,1.4
460.0,1.33
462.0,1.27
464.0,1.41
465.0,1.44
467.0,1.7
469.0,1.92
471.0,2.05
473.0,1.95
475.0,1.65
477.0,1.39
479.0,1.39
481.0,1.45
483.0,1.38
485.0,1.51
487.0,1.59
489.0,1.69
491.0,1.97
493.0,1.9
495.0,1.76
498.0,1.47
500.0,1.59
502.0,1.55
504.0,1.66
506.0,1.64
507.0,1.75
509.0,1.83
511.0,1.92
513.0,1.92
515.0,1.94
517.0,1.65
519.0,1.65
521.0,1.66
523.0,1.63
525.0,1.55
527.0,1.77
529.0,1.91
531.0,1.97
533.0,1.93
535.0,1.83
537.0,1.67
540.0,1.61
542.0,1.62
544.0,1.64
546.0,1.65
548.0,1.79
550.0,1.96
551.0,2.21
553.0,2.14
555.0,1.91
557.0,1.54
559.0,1.39
561.0,1.41
563.0,1.48
565.0,1.59
567.0,1.75
569.0,2.05
571.0,2.3
573.0,2.17
575.0,1.85
577.0,1.6
579.0,1.48
582.0,1.5
584.0,1.5
586.0,1.67
588.0,1.81
590.0,1.93
592.0,1.93
593.0,1.85
595.0,1.78
597.0,1.44
599.0,1.25
601.0,1.53
603.0,1.52
605.0,1.66
607.0,1.64
609.0,1.7
611.0,1.73
613.0,1.66
615.0,1.68
617.0,1.39
619.0,1.32
621.0,1.33
623.0,1.27
626.0,1.28
628.0,1.5
630.0,1.62
632.0,1.7
634.0,1.47
635.0,1.23
637.0,0.91
639.0,0.69
641.0,0.77
643.0,0.81
645.0,1.08
647.0,1.15
649.0,1.48
651.0,1.62
653.0,1.59
655.0,1.33
657.0,1.15
659.0,1.09
661.0,1.0
663.0,1.1
665.0,1.31
668.0,1.44
670.0,1.72
672.0,1.8
674.0,1.63
676.0,1.35
678.0,1.09
679.0,1.02
681.0,0.91
683.0,1.04
685.0,1.26
687.0,1.42
689.0,1.47
691.0,1.61
693.0,1.39
695.0,1.32
697.0,1.16
699.0,1.24
701.0,1.17
703.0,1.37
705.0,1.37
707.0,1.5
710.0,1.64
712.0,1.82
714.0,1.72
716.0,1.57
718.0,1.25
720.0,1.2
721.0,1.2
723.0,1.26
725.0,1.36
727.0,1.55
729.0,1.59
731.0,1.8
733.0,1.72
735.0,1.48
737.0,1.27
739.0,1.12
741.0,0.98
743.0,1.2
745.0,1.35
747.0,1.53
749.0,1.85
751.0,1.95
754.0,1.87
756.0,1.65
758.0,1.38
760.0,1.31
762.0,1.28
763.0,1.26
765.0,1.44
767.0,1.62
769.0,1.87
771.0,1.98
773.0,1.75
775.0,1.58
777.0,1.33
779.0,1.43
781.0,1.28
783.0,1.25
785.0,1.45
787.0,1.64
789.0,1.67
791.0,1.77
793.0,1.79
796.0,1.54
798.0,1.31
800.0,1.32
802.0,1.47
804.0,1.5
806.0,1.65
807.0,1.68
809.0,1.76
811.0,1.71
813.0,1.73
815.0,1.54
817.0,1.36
819.0,1.25
821.0,1.27
823.0,1.2
825.0,1.3
827.0,1.29
829.0,1.53
831.0,1.62
833.0,1.54
835.0,1.5
838.0,1.15
840.0,0.91
842.0,0.97
844.0,1.21
846.0,1.34
848.0,1.48
849.0,1.72
851.0,1.86
853.0,1.77
855.0,1.48
857.0,1.11
859.0,1.09
861.0,1.17
863.0,1.3
865.0,1.35
867.0,1.52
869.0,1.74
871.0,1.88
873.0,1.75
875.0,1.36
877.0,1.09
879.0,1.08
882.0,0.94
884.0,1.26
886.0,1.49
888.0,1.55
890.0,1.65
891.0,1.67
893.0,1.67
895.0,1.58
897.0,1.21
899.0,1.31
901.0,1.35
903.0,1.52
905.0,1.59
907.0,1.61
909.0,1.77
911.0,1.86
913.0,1.79
915.0,1.52
917.0,1.28
919.0,1.19
921.0,1.23
924.0,1.16
926.0,1.18
928.0,1.48
930.0,1.64
932.0,1.8
934.0,1.76
935.0,1.4
937.0,1.11
939.0,0.98
941.0,0.98
943.0,1.18
945.0,1.33
947.0,1.42
949.0,1.68
951.0,1.79
953.0,1.7
955.0,1.41
957.0,1.11
959.0,1.05
961.0,1.12
963.0,1.18
966.0,1.4
968.0,1.44
970.0,1.7
972.0,1.62
974.0,1.51
976.0,1.32
977.0,1.16
979.0,1.14
981.0,1.2
983.0,1.46
985.0,1.69
987.0,1.62
989.0,1.7
991.0,1.76
993.0,1.73
995.0,1.54
997.0,1.36
999.0,1.38
1001.0,1.41
1003.0,1.46
1005.0,1.54
1007.0,1.5
1010.0,1.73
1012.0,1.8
1014.0,1.72
1016.0,1.55
1018.0,1.35
1020.0,1.33
1021.0,1.37
1023.0,1.29
1025.0,1.47
1027.0,1.62
1029.0,1.57
1031.0,1.83
1033.0,1.66
1035.0,1.24
1037.0,1.1
1039.0,0.93
1041.0,1.0
1043.0,1.12
1045.0,1.16
1047.0,1.32
1049.0,1.55
1052.0,1.6
1054.0,1.53
1056.0,1.3
1058.0,0.99
1060.0,0.92
1062.0,1.02
1063.0,1.13
1065.0,1.22
1067.0,1.47
1069.0,1.74
1071.0,1.69
1073.0,1.48
1075.0,1.19
1077.0,1.0
1079.0,0.89
1081.0,0.95
1083.0,1.07
1085.0,1.25
1087.0,1.43
1089.0,1.54
1091.0,1.57
1094.0,1.49
1096.0,1.3
1098.0,1.1
1100.0,1.33
1102.0,1.36
1104.0,1.45
1106.0,1.53
1107.0,1.5
1109.0,1.62
1111.0,1.79
1113.0,1.64
1115.0,1.46
1117.0,1.29
1119.0,1.23
1121.0,1.34
1123.0,1.33
1125.0,1.35
1127.0,1.35
1129.0,1.55
1131.0,1.62
1133.0,1.45
1135.0,1.21
1138.0,1.28
1140.0,1.12
1142.0,1.1
1144.0,1.06
1146.0,1.44
1148.0,1.67
1149.0,1.79
1151.0,1.87
1153.0,1.79
1155.0,1.54
1157.0,1.19
1159.0,1.05
1161.0,0.98
1163.0,0.92
1165.0,0.72
1167.0,0.68
1169.0,0.98
1171.0,1.13
1173.0,1.2
1175.0,0.66
1177.0,0.69
1180.0,0.51
1182.0,0.54
1184.0,0.56
1186.0,0.69
1188.0,1.09
1190.0,1.45
1192.0,1.45
1193.0,1.29
1195.0,0.95
1197.0,1.07
1199.0,1.23
1201.0,1.41
1203.0,1.3
1205.0,1.42
1207.0,1.41
1209.0,1.33
1211.0,1.56
1213.0,1.15
1215.0,0.82
1217.0,0.51
1219.0,1.14
1222.0,1.0
1224.0,0.85
1226.0,0.75
1228.0,1.0
1230.0,1.11
1232.0,0.98
1234.0,0.72
1235.0,0.5
1237.0,0.43
1239.0,0.65
1241.0,0.8
1243.0,0.68
1245.0,0.43
1247.0,0.55
1249.0,0.38
1251.0,0.65
1253.0,0.36
1255.0,0.0
1257.0,0.0
1259.0,0.0
1261.0,0.0
1263.0,0.0
1266.0,0.0
1268.0,0.0
1270.0,0.0
1272.0,0.0
1274.0,0.0
1276.0,0.0
1278.0,0.0
1279.0,0.0
1281.0,0.0
1283.0,0.0
1285.0,0.0
1287.0,0.0
1289.0,0.0
1291.0,0.0
1293.0,0.0
1295.0,0.0
1297.0,0.01
1299.0,0.17
1301.0,0.54
1303.0,0.82
1305.0,1.16
1308.0,1.09
1310.0,1.4
1312.0,3.3
1314.0,3.3
1316.0,3.3
1318.0,3.3
1320.0,3.3
1321.0,3.3
1323.0,3.3
1325.0,3.3
1327.0,3.3
1329.0,3.3
1331.0,3.3
1333.0,3.3
1335.0,3.3
1337.0,3.3
1339.0,3.3
1341.0,3.3
1343.0,3.3
1345.0,3.3
1347.0,3.3
1350.0,3.3
1352.0,3.3
1354.0,3.3
1356.0,3.3
1358.0,3.3
1360.0,3.3
1362.0,3.3
1364.0,3.3
1365.0,3.3
1367.0,3.3
1369.0,3.3
1371.0,3.3
1373.0,3.3
1375.0,3.18
1377.0,3.17
1379.0,3.09
1381.0,2.57
1383.0,3.3
1385.0,3.3
1387.0,3.3
1389.0,3.3
1391.0,3.3
1394.0,3.3
1396.0,3.3
1398.0,3.3
1400.0,3.3
1402.0,3.3
1404.0,3.3
1406.0,3.3
1407.0,3.3
1409.0,3.3
1411.0,3.3
1413.0,3.3
1415.0,3.3
1417.0,3.3
1419.0,3.3
1421.0,3.3
1423.0,3.3
1425.0,3.3
1427.0,3.3
1429.0,3.25
1431.0,3.3
1433.0,3.18
1436.0,2.95
1438.0,2.77
1440.0,2.4
1442.0,2.25
1444.0,2.08
1446.0,2.05
1448.0,2.2
1450.0,2.15
1451.0,2.44
1453.0,2.57
1455.0,2.0
1457.0,1.57
1459.0,1.29
1461.0,1.31
1463.0,1.35
1465.0,1.41
1467.0,1.6
1469.0,1.46
1471.0,1.29
1473.0,0.74
1475.0,0.58
1478.0,0.55
1480.0,0.28
1482.0,0.48
1484.0,0.73
1486.0,0.72
1488.0,0.74
1490.0,0.81
1492.0,0.73
1493.0,0.69
1495.0,0.18
1497.0,0.42
1499.0,0.31
1501.0,0.31
1503.0,0.47
1505.0,0.49
1507.0,0.4
1509.0,0.79
1511.0,0.77
1513.0,0.86
1515.0,0.64
1517.0,0.6
1519.0,0.48
1522.0,0.63
1524.0,0.64
1526.0,0.86
1528.0,0.98
1530.0,1.13
1532.0,1.31
1534.0,1.33
1536.0,1.07
1537.0,1.26
1539.0,1.36
1541.0,1.52
1543.0,2.12
1545.0,2.32
1547.0,2.29
1549.0,2.71
1551.0,2.51
1553.0,2.3
1555.0,2.0
1557.0,1.77
1559.0,1.7
1561.0,1.72
1564.0,1.55
1566.0,1.58
1568.0,1.73
1570.0,1.8
1572.0,1.47
1574.0,1.18
1576.0,0.77
1578.0,0.63
1580.0,0.5
1581.0,0.48
1583.0,0.54
1585.0,0.53
1587.0,0.7
1589.0,0.85
1591.0,1.06
1593.0,1.53
1595.0,1.66
1597.0,2.32
1599.0,2.76
1601.0,2.84
1603.0,2.9
1606.0,2.72
1608.0,2.6
1610.0,2.61
1612.0,2.52
1614.0,2.14
1616.0,1.91
1618.0,1.71
1620.0,1.73
1622.0,1.92
1623.0,1.8
1625.0,1.8
1627.0,1.76
1629.0,1.88
1631.0,1.89
1633.0,1.72
1635.0,1.45
1637.0,1.36
1639.0,1.15
1641.0,1.2
1643.0,3.3
1645.0,3.3
1647.0,3.3
1650.0,3.3
1652.0,3.3
1654.0,3.3
1656.0,3.3
1658.0,3.3
1660.0,3.3
1662.0,3.3
1664.0,3.3
1665.0,3.3
1667.0,3.3
1669.0,3.3
1671.0,3.3
1673.0,3.3
1675.0,3.3
1677.0,3.3
1679.0,3.3
1681.0,3.3
1683.0,3.3
1685.0,3.3
1687.0,3.3
1689.0,3.3
1692.0,3.3
1694.0,3.3
1696.0,3.16
1698.0,3.05
1700.0,2.88
1702.0,2.76
1704.0,2.71
1706.0,2.55
1708.0,2.67
1709.0,2.84
1711.0,2.72
1713.0,2.61
1715.0,2.42
1717.0,2.56
1719.0,2.76
1721.0,2.81
1723.0,2.51
1725.0,2.38
1727.0,2.47
1729.0,2.48
1731.0,2.2
1734.0,1.93
1736.0,1.7
1738.0,1.53
1740.0,1.33
1742.0,1.22
1744.0,1.21
1746.0,1.22
1748.0,1.25
1750.0,1.35
1751.0,1.28
1753.0,1.14
1755.0,0.76
1757.0,0.67
1759.0,0.61
1761.0,0.73
1763.0,0.76
1765.0,0.76
1767.0,0.93
1769.0,0.98
1771.0,0.8
1773.0,0.49
1775.0,0.26
1778.0,0.3
1780.0,0.29
1782.0,0.34
1784.0,0.5
1786.0,0.59
1788.0,0.7
1790.0,0.82
1792.0,0.76
1794.0,0.83
1795.0,0.81
1797.0,0.92
1799.0,1.27
1801.0,1.6
1803.0,1.84
1805.0,1.83
1807.0,1.85
1809.0,2.32
1811.0,1.92
1813.0,1.52
1815.0,1.09
1817.0,0.94
1820.0,0.86
1822.0,0.85
1824.0,0.85
1826.0,0.89
1828.0,0.96
1830.0,0.8
1832.0,0.82
1834.0,0.64
1836.0,0.59
1837.0,0.53
1839.0,0.53
1841.0,0.6
1843.0,0.95
1845.0,0.95
1847.0,1.17
1849.0,1.2
1851.0,1.18
1853.0,1.58
1855.0,2.42
1857.0,3.24
1859.0,3.3
1862.0,3.3
1864.0,3.3
1866.0,3.14
1868.0,3.3
1870.0,3.3
1872.0,3.3
1874.0,3.3
1876.0,3.3
1878.0,3.3
1880.0,3.3
1881.0,3.3
1883.0,3.3
1885.0,3.3
1887.0,3.3
1889.0,3.3
1891.0,3.3
1893.0,3.3
1895.0,3.3
1897.0,3.3
1899.0,3.3
1901.0,3.3
1903.0,3.3
1906.0,3.3
1908.0,3.3
1910.0,3.3
1912.0,3.3
1914.0,3.3
1916.0,3.12
1918.0,2.99
1920.0,3.05
1922.0,2.84
1923.0,2.65
1925.0,2.55
1927.0,2.35
1929.0,2.21
1931.0,1.81
1933.0,1.58
1935.0,1.45
1937.0,1.36
1939.0,1.29
1941.0,1.27
1943.0,1.46
1945.0,1.46
1948.0,1.57
1950.0,1.44
1952.0,1.3
1954.0,1.02
1956.0,0.71
1958.0,0.6
1960.0,0.49
1962.0,0.49
1964.0,0.55
1966.0,0.6
1967.0,0.7
1969.0,0.6
1971.0,0.3
1973.0,0.0
1975.0,0.0
1977.0,0.0
1979.0,0.0
1981.0,0.0
1983.0,0.0
1985.0,0.0
1987.0,0.0
1990.0,0.0
1992.0,0.0
1994.0,0.0
1996.0,0.0
1998.0,0.0
2000.0,0.0
2002.0,0.0
2004.0,0.0
2006.0,0.0
2008.0,0.0
2009.0,0.0
2011.0,0.0
2013.0,0.0
2015.0,0.0
2017.0,0.0
2019.0,0.0
2021.0,0.0
2023.0,0.0
2025.0,0.0
2027.0,0.0
2029.0,0.0
2031.0,0.0
2034.0,0.0
2036.0,0.0
2038.0,0.0
2040.0,0.0
2042.0,0.0
2044.0,0.0
2046.0,0.0
2048.0,0.0
2050.0,0.0
2052.0,0.0
2053.0,0.0
2055.0,0.0
2057.0,0.0
2059.0,0.0
2061.0,0.0
2063.0,0.0
2065.0,0.0
2067.0,0.0
2069.0,0.0
2071.0,0.0
2073.0,0.0
2076.0,0.0
2078.0,0.0
2080.0,0.0
2082.0,0.0
2084.0,0.0
2086.0,0.0
2088.0,0.0
2090.0,0.0
2092.0,0.0
2094.0,0.0
2095.0,0.0
2097.0,0.0
2099.0,0.0
2101.0,0.0
2103.0,0.0
2105.0,0.0
2107.0,0.0
2109.0,0.0
2111.0,0.0
2113.0,0.0
2115.0,0.0
2118.0,0.0
2120.0,0.0
2122.0,0.0
2124.0,0.0
2126.0,0.0
2128.0,0.0
2130.0,0.0
2132.0,0.0
2134.0,0.0
2136.0,0.0
2138.0,0.0
2139.0,0.0
2141.0,0.0
2143.0,0.0
2145.0,0.0
2147.0,0.0
2149.0,0.0
2151.0,0.0
2153.0,0.0
2155.0,0.0
2157.0,0.0
2159.0,0.0
2162.0,0.0
2164.0,0.0
2166.0,0.0
2168.0,0.0
2170.0,0.0
2172.0,0.0
2174.0,0.0
2176.0,0.0
2178.0,0.0
2180.0,0.0
2181.0,0.0
2183.0,0.0
2185.0,0.0
2187.0,0.0
2189.0,0.0
2191.0,0.0
2193.0,0.0
2195.0,0.0
2197.0,0.0
2199.0,0.0
2201.0,0.0
2204.0,0.0
2206.0,0.0
2208.0,0.0
2210.0,0.0
2212.0,0.0
2214.0,0.0
2216.0,0.0
2218.0,0.0
2220.0,0.0
2222.0,0.0
2224.0,0.0
2225.0,0.0
2227.0,0.0
2229.0,0.0
2231.0,0.0
2233.0,0.0
2235.0,0.0
2237.0,0.0
2239.0,0.0
2241.0,0.0
2243.0,0.02
2246.0,0.0
2248.0,0.47
2250.0,0.66
2252.0,0.7
2254.0,0.9
2256.0,0.97
2258.0,0.85
2260.0,1.1
2262.0,1.3
2264.0,1.54
2266.0,1.73
2267.0,1.96
2269.0,2.0
2271.0,1.92
2273.0,1.75
2275.0,1.71
2277.0,1.81
2279.0,1.76
2281.0,1.96
2283.0,2.28
2285.0,2.54
2287.0,2.55
2290.0,2.57
2292.0,2.51
2294.0,2.28
2296.0,2.32
2298.0,2.47
2300.0,2.47
2302.0,2.47
2304.0,2.59
2306.0,2.8
2308.0,2.87
2310.0,3.12
2311.0,3.25
2313.0,2.96
2315.0,2.83
2317.0,2.69
2319.0,3.22
2321.0,3.3
2323.0,3.3
2325.0,3.3
2327.0,3.3
2329.0,3.3
2332.0,3.3
2334.0,2.98
2336.0,2.85
2338.0,2.71
2340.0,2.6
2342.0,2.78
2344.0,2.9
2346.0,2.98
2348.0,3.09
2350.0,3.01
2352.0,3.03
2354.0,2.78
2355.0,2.56
2357.0,2.44
2359.0,2.46
2361.0,2.3
2363.0,2.5
2365.0,2.27
2367.0,2.79
2369.0,2.89
2371.0,2.74
2374.0,2.42
2376.0,2.25
2378.0,2.23
2380.0,2.36
2382.0,2.47
2384.0,2.42
2386.0,2.39
2388.0,2.51
2390.0,2.44
2392.0,2.34
2394.0,2.23
2396.0,2.07
2397.0,1.95
2399.0,2.15
2401.0,2.17
2403.0,2.36
2405.0,2.46
2407.0,2.42
2409.0,2.43
2411.0,2.29
2413.0,2.09
2415.0,1.89
2418.0,1.94
2420.0,1.92
2422.0,1.64
2424.0,1.47
2426.0,1.4
2428.0,1.37
2430.0,1.29
2432.0,1.43
2434.0,1.14
2436.0,1.2
2438.0,1.16
2440.0,1.27
2441.0,1.43
2443.0,2.62
2445.0,3.3
2447.0,3.3
2449.0,3.3
2451.0,3.3
2453.0,3.3
2455.0,3.3
2457.0,3.3
2460.0,3.3
2462.0,3.3
2464.0,3.3
2466.0,3.3
2468.0,3.3
2470.0,3.3
2472.0,3.3
2474.0,3.3
2476.0,3.3
2478.0,3.3
2480.0,3.3
2482.0,3.3
2484.0,3.3
2485.0,3.3
2487.0,3.3
2489.0,3.3
2491.0,3.3
2493.0,3.13
2495.0,3.03
2497.0,2.82
2499.0,2.67
2502.0,2.39
2504.0,2.45
2506.0,2.37
2508.0,2.37
2510.0,2.3
2512.0,2.15
2514.0,1.91
2516.0,1.98
2518.0,1.75
2520.0,1.79
2522.0,1.66
2524.0,1.62
2526.0,1.58
2527.0,1.62
2529.0,1.78
2531.0,1.84
2533.0,1.54
2535.0,1.55
2537.0,1.54
2539.0,1.45
2541.0,1.41
2543.0,1.45
2546.0,1.47
2548.0,1.6
2550.0,1.51
2552.0,1.45
2554.0,1.29
2556.0,1.27
2558.0,1.23
2560.0,1.26
2562.0,1.29
2564.0,1.33
2566.0,1.4
2568.0,1.66
2570.0,1.72
2571.0,1.5
2573.0,1.41
2575.0,1.64
2577.0,1.91
2579.0,2.16
2581.0,2.52
2583.0,2.95
2585.0,3.3
2588.0,3.3
2590.0,3.22
2592.0,3.05
2594.0,2.67
2596.0,2.54
2598.0,2.5
2600.0,2.35
2602.0,2.35
2604.0,2.23
2606.0,2.17
2608.0,2.08
2610.0,1.98
2612.0,1.86
2613.0,1.71
2615.0,1.52
2617.0,1.5
2619.0,1.49
2621.0,1.51
2623.0,1.41
2625.0,1.47
2627.0,1.68
2630.0,1.79
2632.0,1.75
2634.0,1.63
2636.0,1.51
2638.0,1.48
2640.0,1.49
2642.0,1.6
2644.0,1.63
2646.0,1.74
2648.0,1.85
2650.0,1.75
2652.0,1.71
2654.0,1.6
2656.0,1.81
2657.0,1.68
2659.0,1.86
2661.0,1.91
2663.0,1.7
2665.0,1.55
2667.0,1.44
2669.0,0.92
2671.0,0.53
2674.0,0.26
2676.0,0.13
2678.0,0.2
2680.0,0.25
2682.0,0.3
2684.0,0.51
2686.0,0.87
2688.0,2.2
2690.0,3.26
2692.0,3.3
2694.0,3.3
2696.0,3.3
2698.0,3.3
2699.0,3.3
2701.0,3.3
2703.0,3.3
2705.0,3.3
2707.0,3.3
2709.0,3.24
2711.0,3.22
2713.0,2.85
2716.0,2.87
2718.0,2.8
2720.0,2.77
2722.0,2.45
2724.0,2.4
2726.0,2.42
2728.0,2.45
2730.0,2.39
2732.0,2.37
2734.0,2.12
2736.0,2.0
2738.0,1.66
2740.0,1.45
2742.0,1.29
2743.0,1.34
2745.0,1.28
2747.0,1.62
2749.0,3.3
2751.0,3.3
2753.0,3.3
2755.0,3.3
2758.0,3.2
2760.0,3.3
2762.0,3.18
2764.0,2.98
2766.0,2.81
2768.0,2.69
2770.0,2.46
2772.0,1.94
2774.0,1.34
2776.0,1.12
2778.0,1.0
2780.0,0.78
2782.0,0.96
2784.0,1.05
2785.0,1.01
2787.0,1.13
2789.0,1.0
2791.0,0.9
2793.0,0.67
2795.0,0.64
2797.0,0.84
2799.0,1.11
2802.0,2.21
2804.0,3.03
2806.0,3.3
2808.0,3.3
2810.0,3.3
2812.0,3.3
2814.0,3.3
2816.0,3.3
2818.0,3.3
2820.0,3.3
2822.0,3.3
2824.0,3.3
2826.0,3.3
2828.0,3.3
2829.0,3.3
2831.0,3.3
2833.0,3.3
2835.0,3.3
2837.0,3.3
2839.0,3.3
2841.0,3.3
2844.0,3.3
2846.0,3.3
2848.0,3.3
2850.0,3.3
2852.0,3.3
2854.0,3.3
2856.0,3.3
2858.0,3.3
2860.0,3.3
2862.0,3.3
2864.0,3.3
2866.0,3.3
2868.0,3.3
2870.0,3.3
2871.0,3.3
2873.0,3.3
2875.0,3.3
2877.0,3.3
2879.0,3.3
2881.0,3.3
2883.0,3.3
2886.0,3.3
2888.0,3.3
2890.0,3.23
2892.0,3.05
2894.0,2.61
2896.0,2.7
2898.0,2.98
2900.0,3.28
2902.0,3.3
2904.0,3.3
2906.0,2.85
2908.0,3.3
2910.0,3.3
2912.0,3.3
2914.0,3.3
2915.0,3.3
2917.0,3.3
2919.0,3.3
2921.0,3.3
2923.0,3.3
2925.0,3.3
2927.0,3.3
2930.0,3.3
2932.0,3.3
2934.0,3.01
2936.0,2.62
2938.0,2.18
2940.0,2.12
2942.0,2.12
2944.0,1.99
2946.0,1.75
2948.0,1.54
2950.0,1.34
2952.0,0.98
2954.0,0.5
2956.0,0.15
2957.0,0.0
2959.0,0.0
2961.0,0.0
2963.0,0.0
2965.0,0.0
2967.0,0.0
2969.0,0.0
2972.0,0.0
2974.0,0.0
2976.0,0.0
2978.0,0.0
2980.0,0.0
2982.0,0.0
2984.0,0.0
2986.0,0.0
2988.0,0.0
2990.0,0.0
2992.0,0.0
2994.0,0.0
2996.0,0.0
2998.0,0.0
3000.0,0.0
3001.0,0.0
3003.0,0.0
3005.0,0.0
3007.0,0.0
3009.0,0.0
3011.0,0.0
3014.0,0.0
3016.0,0.0
3018.0,0.0
3020.0,0.0
3022.0,0.0
3024.0,0.0
3026.0,0.0
3028.0,0.0
3030.0,0.0
3032.0,0.0
3034.0,0.0
3036.0,0.0
3038.0,0.0
3040.0,0.0
3042.0,0.0
3044.0,0.0
3045.0,0.0
3047.0,0.0
3049.0,0.0
3051.0,0.0
3053.0,0.0
3055.0,0.0
3058.0,0.0
3060.0,0.0
3062.0,0.0
3064.0,0.0
3066.0,0.0
3068.0,0.0
3070.0,0.0
3072.0,0.0
3074.0,0.0
3076.0,0.0
3078.0,0.0
3080.0,0.0
3082.0,0.0
3084.0,0.0
3086.0,0.0
3088.0,0.0
3089.0,0.0
3091.0,0.0
3093.0,0.0
3095.0,0.0
3097.0,0.0
3100.0,0.0
3102.0,0.0
3104.0,0.0
3106.0,0.0
3108.0,0.0
3110.0,0.0
3112.0,0.0
3114.0,0.0
3116.0,0.0
3118.0,0.0
3120.0,0.0
3122.0,0.0
3124.0,0.0
3126.0,0.0
3128.0,0.0
3130.0,0.0
3131.0,0.0
3133.0,0.0
3135.0,0.0
3137.0,0.0
3139.0,0.0
3142.0,0.0
3144.0,0.0
3146.0,0.0
3148.0,0.0
3150.0,0.0
3152.0,0.0
3154.0,0.0
3156.0,0.0
3158.0,0.0
3160.0,0.0
3162.0,0.0
3164.0,0.0
3166.0,0.0
3168.0,0.0
3170.0,0.0
3172.0,0.0
3174.0,0.0
3175.0,0.0
3177.0,0.0
3179.0,0.0
3181.0,0.0
3183.0,0.0
3186.0,0.0
3188.0,0.0
3190.0,0.0
3192.0,0.0
3194.0,0.0
3196.0,0.0
3198.0,0.0
3200.0,0.0
3202.0,0.0
3204.0,0.04
3206.0,0.23
3208.0,0.39
3210.0,0.58
3212.0,0.6
3214.0,0.59
3216.0,0.61
3218.0,0.77
3219.0,0.72
3221.0,0.83
3223.0,0.98
3225.0,0.98
3228.0,1.51
3230.0,1.4
3232.0,1.27
3234.0,1.13
3236.0,1.04
3238.0,0.94
3240.0,1.0
3242.0,1.15
3244.0,1.37
3246.0,1.78
3248.0,2.03
3250.0,1.91
3252.0,1.93
3254.0,1.91
3256.0,1.99
3258.0,2.05
3260.0,2.13
3261.0,2.51
3263.0,2.67
3265.0,2.87
3267.0,3.02
3270.0,3.02
3272.0,2.75
3274.0,2.57
3276.0,2.77
3278.0,2.82
3280.0,3.02
3282.0,3.23
3284.0,3.28
3286.0,3.3
3288.0,3.3
3290.0,3.3
3292.0,3.3
3294.0,3.3
3296.0,3.3
3298.0,3.3
3300.0,3.3
3302.0,3.3
3303.0,3.3
3305.0,3.3
3307.0,3.3
3309.0,3.3
3311.0,3.3
3314.0,3.3
3316.0,3.3
3318.0,3.3
3320.0,3.3
3322.0,3.21
3324.0,3.01
3326.0,3.28
3328.0,2.98
3330.0,2.88
3332.0,2.75
3334.0,2.48
3336.0,2.3
3338.0,2.17
3340.0,2.08
3342.0,1.98
3344.0,2.22
3346.0,2.5
3347.0,2.47
3349.0,2.42
3351.0,2.13
3353.0,1.86
3356.0,1.72
3358.0,1.8
3360.0,1.79
3362.0,1.68
3364.0,1.51
3366.0,2.07
3368.0,2.21
3370.0,1.84
3372.0,1.21
3374.0,0.81
3376.0,1.35
3378.0,1.87
3380.0,2.34
3382.0,2.8
3384.0,3.06
3386.0,3.03
3388.0,2.77
3389.0,2.46
3391.0,2.17
3393.0,1.87
3395.0,1.83
3398.0,1.8
3400.0,1.85
3402.0,1.93
3404.0,1.8
3406.0,1.76
3408.0,1.76
3410.0,1.89
3412.0,1.88
3414.0,1.78
3416.0,1.73
3418.0,1.71
3420.0,1.62
3422.0,1.7
3424.0,1.62
3426.0,1.74
3428.0,1.84
3430.0,1.8
3432.0,1.79
3433.0,1.61
3435.0,1.41
3437.0,1.59
3439.0,1.86
3442.0,1.8
3444.0,1.9
3446.0,2.02
3448.0,2.15
3450.0,2.16
3452.0,1.91
3454.0,1.84
3456.0,1.74
3458.0,1.63
3460.0,1.51
3462.0,1.64
3464.0,1.73
3466.0,1.96
3468.0,1.81
3470.0,1.69
3472.0,1.47
3474.0,1.33
3476.0,1.28
3477.0,1.16
3479.0,1.06
3481.0,1.31
3484.0,1.14
3486.0,1.15
3488.0,1.25
3490.0,1.13
3492.0,0.83
3494.0,0.64
3496.0,0.71
3498.0,1.13
3500.0,1.27
3502.0,1.43
3504.0,1.36
3506.0,1.65
3508.0,1.92
3510.0,1.88
3512.0,1.6
3514.0,1.53
3516.0,1.55
3518.0,1.59
3519.0,1.61
3521.0,1.66
3523.0,1.8
3526.0,1.86
3528.0,1.73
3530.0,1.81
3532.0,1.48
3534.0,1.29
3536.0,1.24
3538.0,1.24
3540.0,1.37
3542.0,1.53
3544.0,1.56
3546.0,1.71
3548.0,1.68
3550.0,1.55
3552.0,1.17
3554.0,0.89
3556.0,0.83
3558.0,0.79
3560.0,1.16
3562.0,1.2
3563.0,1.33
3565.0,1.44
3567.0,1.62
3570.0,1.61
3572.0,1.33
3574.0,1.25
3576.0,1.13
3578.0,1.36
3580.0,1.78
3582.0,2.43
3584.0,2.91
3586.0,3.3
3588.0,3.3
3590.0,3.3
3592.0,3.3
3594.0,3.3
3596.0,3.3
3598.0,3.3
3600.0,3.3
3602.0,3.3
3604.0,3.3
3605.0,3.3
3607.0,3.3
3609.0,3.3
3612.0,3.3
3614.0,3.3
3616.0,3.3
3618.0,3.3
3620.0,3.3
3622.0,3.3
3624.0,3.3
3626.0,3.3
3628.0,3.3
3630.0,3.3
3632.0,3.3
3634.0,3.3
3636.0,3.3
3638.0,3.3
3640.0,3.3
3642.0,3.3
3644.0,3.3
3646.0,3.3
3648.0,3.3
3649.0,3.3
3651.0,3.3
3654.0,3.3
3656.0,3.3
3658.0,3.3
3660.0,3.3
3662.0,3.3
3664.0,3.29
3666.0,3.17
3668.0,2.88
3670.0,2.53
3672.0,2.14
3674.0,1.85
3676.0,1.57
3678.0,1.37
3680.0,1.26
3682.0,1.1
3684.0,1.17
3686.0,1.14
3688.0,0.95
3690.0,0.8
3692.0,0.7
3693.0,0.3
3695.0,0.0
3698.0,0.0
3700.0,0.0
3702.0,0.0
3704.0,0.0
3706.0,0.0
3708.0,0.0
3710.0,0.02
3712.0,0.0
3714.0,0.0
3716.0,0.0
3718.0,0.0
3720.0,0.0
3722.0,0.0
3724.0,0.16
3726.0,0.33
3728.0,0.21
3730.0,0.05
3732.0,0.0
3734.0,1.25
3735.0,2.15
3737.0,1.7
3740.0,1.25
3742.0,0.99
3744.0,0.92
3746.0,1.21
3748.0,0.94
3750.0,0.64
3752.0,0.22
3754.0,0.0
3756.0,0.0
3758.0,0.0
3760.0,0.0
3762.0,0.0
3764.0,0.13
3766.0,0.31
3768.0,0.19
3770.0,0.12
3772.0,0.0
3774.0,0.0
3776.0,0.0
3778.0,0.0
3779.0,0.09
3782.0,0.59
3784.0,0.85
3786.0,0.85
3788.0,0.84
3790.0,0.79
3792.0,0.61
3794.0,0.51
3796.0,0.45
3798.0,0.36
3800.0,0.33
3802.0,0.31
3804.0,0.56
3806.0,0.6
3808.0,0.63
3810.0,0.54
3812.0,0.34
3814.0,0.27
3816.0,0.26
3818.0,0.23
3820.0,0.28
3822.0,0.38
3823.0,0.42
3826.0,0.49
3828.0,0.55
3830.0,0.48
3832.0,0.39
3834.0,0.4
3836.0,0.45
3838.0,0.49
3840.0,0.45
3842.0,0.63
3844.0,0.69
3846.0,0.84
3848.0,0.81
3850.0,0.75
3852.0,0.38
3854.0,0.41
3856.0,0.4
3858.0,0.42
3860.0,0.5
3862.0,0.62
3864.0,0.73
3866.0,0.91
3868.0,0.75
3870.0,0.59
3872.0,0.25
3874.0,0.35
3876.0,0.32
3878.0,0.22
3880.0,0.37
3882.0,0.74
3884.0,0.99
3886.0,1.07
3888.0,0.94
3890.0,0.85
3892.0,0.68
3894.0,0.63
3896.0,0.54
3898.0,0.65
3900.0,0.82
3902.0,0.94
3904.0,1.0
3906.0,1.07
3908.0,0.96
3910.0,0.84
3912.0,0.74
3914.0,0.81
3916.0,0.78
3918.0,0.88
3920.0,0.91
3922.0,1.06
3924.0,1.15
3926.0,1.06
3928.0,0.89
3930.0,0.96
3932.0,0.81
3934.0,0.84
3936.0,0.67
3938.0,0.65
3940.0,0.91
3942.0,1.11
3944.0,1.06
3946.0,1.4
3948.0,1.25
3950.0,1.11
3953.0,0.92
3954.0,0.84
3956.0,0.7
3958.0,0.58
3960.0,0.8
3962.0,0.93
3964.0,1.11
3966.0,0.96
3968.0,1.12
3970.0,1.05
3972.0,0.58
3974.0,0.63
3976.0,0.66
3978.0,0.83
3980.0,0.84
3982.0,0.94
3984.0,1.04
3986.0,0.93
3988.0,0.85
3990.0,0.79
3992.0,0.62
3994.0,0.75
3997.0,0.84
3998.0,0.69
4000.0,0.66
4002.0,0.48
4004.0,0.53
4006.0,0.72
4008.0,0.5
4010.0,0.73
4012.0,0.32
4014.0,0.35
4016.0,0.32
4018.0,0.0
4020.0,0.0
4022.0,0.0
4024.0,0.0
4026.0,0.0
4028.0,0.0
4030.0,0.0
4032.0,0.0
4034.0,0.0
4036.0,0.0
4039.0,0.0
4040.0,0.0
4042.0,0.0
4044.0,0.0
4046.0,0.0
4048.0,0.0
4050.0,0.0
4052.0,0.0
4054.0,0.0
4056.0,0.0
4058.0,0.0
4060.0,0.0
4062.0,0.0
4064.0,0.0
4066.0,0.0
4068.0,0.0
4070.0,0.0
4072.0,0.0
4074.0,0.0
4076.0,0.0
4078.0,0.0
4081.0,0.0
4083.0,0.0
4084.0,0.0
4086.0,0.0
4088.0,0.0
4090.0,0.0
4092.0,0.0
4094.0,0.0
4096.0,0.0
4098.0,0.0
4100.0,0.0
4102.0,0.0
4104.0,0.0
4106.0,0.0
4108.0,0.0
4110.0,0.0
4112.0,0.0
4114.0,0.02
4116.0,0.0
4118.0,0.33
4120.0,0.24
4122.0,0.12
4125.0,0.34
4126.0,0.64
4128.0,0.7
4130.0,0.65
4132.0,0.54
4134.0,0.56
4136.0,0.78
4138.0,0.72
4140.0,0.72
4142.0,0.75
4144.0,1.14
4146.0,1.31
4148.0,1.49
4150.0,1.65
4152.0,1.56
4154.0,1.59
4156.0,1.57
4158.0,1.44
4160.0,1.42
4162.0,1.88
4164.0,2.15
4167.0,2.16
4169.0,2.17
4170.0,2.12
4172.0,1.97
4174.0,1.94
4176.0,1.89
4178.0,2.0
4180.0,2.06
4182.0,2.32
4184.0,2.52
4186.0,2.56
4188.0,2.49
4190.0,2.34
4192.0,2.18
4194.0,2.25
4196.0,2.18
4198.0,2.29
4200.0,2.37
4202.0,2.53
4204.0,2.6
4206.0,2.63
4209.0,2.55
4211.0,2.49
4212.0,2.29
4214.0,2.42
4216.0,2.5
4218.0,2.46
4220.0,2.62
4222.0,2.42
4224.0,2.95
4226.0,3.03
4228.0,3.0
4230.0,2.82
4232.0,2.92
4234.0,3.3
4236.0,3.3
4238.0,3.3
4240.0,3.3
4242.0,3.3
4244.0,3.3
4246.0,3.3
4248.0,3.3
4250.0,3.3
4253.0,3.3
4255.0,3.3
4256.0,3.3
4258.0,3.3
4260.0,3.3
4262.0,3.3
4264.0,3.3
4266.0,3.3
4268.0,3.3
4270.0,3.3
4272.0,3.3
4274.0,3.3
4276.0,3.3
4278.0,3.3
4280.0,3.3
4282.0,3.3
4284.0,3.3
4286.0,3.3
4288.0,3.3
4290.0,3.3
4292.0,3.3
4295.0,3.3
4297.0,3.3
4298.0,3.3
4300.0,3.3
4302.0,3.3
4304.0,3.3
4306.0,3.3
4308.0,3.3
4310.0,3.3
4312.0,3.3
4314.0,3.3
4316.0,3.3
4318.0,3.3
4320.0,3.3
4322.0,3.3
4324.0,3.3
4326.0,3.3
4328.0,3.3
4330.0,3.3
4332.0,3.3
4334.0,3.3
4337.0,3.3
4339.0,3.3
4341.0,3.3
4342.0,3.3
4344.0,3.3
4346.0,3.3
4348.0,3.3
4350.0,3.3
4352.0,3.21
4354.0,2.98
4356.0,2.82
4358.0,2.73
4360.0,2.65
4362.0,2.45
4364.0,2.64
4366.0,2.47
4368.0,2.51
4370.0,2.55
4372.0,2.33
4374.0,2.13
4376.0,1.78
4378.0,1.65
4381.0,1.79
4383.0,1.68
4385.0,1.65
4386.0,1.46
4388.0,1.3
4390.0,1.04
4392.0,0.82
4394.0,0.71
4396.0,0.64
4398.0,0.74
4400.0,0.72
4402.0,0.82
4404.0,0.98
4406.0,0.93
4408.0,0.84
4410.0,0.71
4412.0,0.61
4414.0,0.81
4416.0,0.85
4418.0,0.85
4420.0,0.86
4423.0,0.71
4425.0,0.83
4427.0,0.74
4429.0,0.59
4430.0,0.54
4432.0,0.45
4434.0,0.53
4436.0,0.41
4438.0,0.45
4440.0,0.55
4442.0,0.62
4444.0,0.67
4446.0,0.7
4448.0,0.71
4450.0,0.6
4452.0,0.44
4454.0,0.36
4456.0,0.42
4458.0,0.65
4460.0,0.72
4462.0,0.81
4465.0,1.0
4467.0,1.06
4469.0,0.91
4471.0,0.72
4472.0,0.57
4474.0,0.34
4476.0,0.41
4478.0,0.58
4480.0,0.76
4482.0,0.85
4484.0,0.96
4486.0,0.75
4488.0,0.87
4490.0,0.83
4492.0,0.68
4494.0,0.58
4496.0,0.61
4498.0,0.75
4500.0,0.95
4502.0,1.06
4504.0,1.32
4506.0,1.21
4509.0,1.23
4511.0,1.46
4513.0,1.65
4514.0,1.56
4516.0,1.45
4518.0,1.21
4520.0,1.19
4522.0,1.04
4524.0,1.14
4526.0,1.28
4528.0,1.38
4530.0,1.18
4532.0,1.26
4534.0,1.26
4536.0,1.11
4538.0,1.07
4540.0,1.32
4542.0,1.33
4544.0,1.39
4546.0,1.43
4548.0,1.33
4551.0,1.12
4553.0,1.3
4555.0,1.52
4557.0,1.52
4558.0,1.59
4560.0,1.75
4562.0,1.77
4564.0,1.94
4566.0,2.06
4568.0,2.05
4570.0,1.93
4572.0,1.73
4574.0,1.63
4576.0,1.71
4578.0,1.7
4580.0,1.72
4582.0,1.8
4584.0,1.84
4586.0,1.85
4588.0,1.82
4590.0,1.79
4593.0,1.6
4595.0,1.55
4597.0,1.75
4599.0,1.8
4601.0,1.93
4602.0,1.86
4604.0,2.07
4606.0,1.83
4608.0,1.56
4610.0,1.6
4612.0,1.41
4614.0,1.72
4616.0,1.93
4618.0,1.84
4620.0,1.9
4622.0,1.71
4624.0,2.03
4626.0,2.31
4628.0,2.3
4630.0,2.18
4632.0,2.46
4634.0,2.71
4637.0,2.44
4639.0,2.64
4641.0,2.59
4643.0,2.6
4645.0,2.55
4646.0,2.59
4648.0,2.54
4650.0,2.25
4652.0,2.0
4654.0,1.73
4656.0,1.46
4658.0,1.67
4660.0,1.77
4662.0,2.09
4664.0,2.36
4666.0,2.3
4668.0,2.23
4670.0,1.94
4672.0,1.66
4674.0,1.53
4676.0,3.18
4679.0,3.3
4681.0,3.3
4683.0,3.3
4685.0,3.3
4687.0,3.3
4689.0,3.3
4690.0,2.98
4692.0,2.7
4694.0,2.4
4696.0,2.27
4698.0,2.28
4700.0,2.17
4702.0,1.84
4704.0,1.9
4706.0,1.74
4708.0,1.41
4710.0,1.27
4712.0,1.31
4714.0,1.18
4716.0,1.14
4718.0,1.16
4721.0,1.02
4723.0,1.1
4725.0,1.36
4727.0,1.48
4729.0,1.39
4731.0,1.23
4733.0,0.95
4734.0,0.65
4736.0,0.6
4738.0,0.78
4740.0,1.17
4742.0,1.16
4744.0,0.99
4746.0,0.97
4748.0,0.96
4750.0,0.94
4752.0,0.99
4754.0,0.85
4756.0,0.63
4758.0,0.74
4760.0,1.2
4762.0,1.5
4765.0,1.93
4767.0,1.9
4769.0,1.53
4771.0,1.21
4773.0,1.0
4775.0,0.9
4776.0,0.98
4778.0,1.37
4780.0,2.0
4782.0,3.3
4784.0,3.3
4786.0,2.81
4788.0,2.48
4790.0,2.2
4792.0,1.7
4794.0,1.46
4796.0,1.47
4798.0,1.92
4800.0,2.08
4802.0,3.3
4804.0,3.3
4807.0,3.3
4809.0,3.3
4811.0,3.3
4813.0,3.3
4815.0,3.3
4817.0,3.3
4819.0,3.3
4820.0,3.3
4822.0,3.3
4824.0,3.3
4826.0,3.3
4828.0,2.98
4830.0,2.47
4832.0,2.14
4834.0,2.05
4836.0,1.9
4838.0,2.24
4840.0,2.25
4842.0,2.18
4844.0,2.15
4846.0,2.0
4849.0,1.59
4851.0,1.01
4853.0,0.59
4855.0,0.3
4857.0,0.37
4859.0,0.64
4861.0,0.81
4862.0,0.68
4864.0,0.56
4866.0,0.5
4868.0,0.26
4870.0,0.0
4872.0,0.0
4874.0,0.0
4876.0,0.01
4878.0,0.5
4880.0,0.77
4882.0,0.76
4884.0,0.87
4886.0,0.82
4888.0,0.52
4890.0,0.14
4893.0,0.14
4895.0,0.11
4897.0,0.17
4899.0,0.31
4901.0,0.35
4903.0,0.42
4905.0,0.4
4906.0,0.22
4908.0,0.03
4910.0,0.0
4912.0,0.0
4914.0,0.0
4916.0,0.0
4918.0,0.0
4920.0,0.0
4922.0,0.0
4924.0,0.02
4926.0,0.07
4928.0,0.05
4930.0,0.3
4932.0,0.47
4935.0,0.52
4937.0,0.43
4939.0,0.31
4941.0,0.55
4943.0,0.82
4945.0,0.85
4947.0,1.03
4948.0,0.9
4950.0,0.78
4952.0,0.57
4954.0,0.51
4956.0,0.5
4958.0,0.69
4960.0,1.21
4962.0,1.3
4964.0,0.51
4966.0,0.27
4968.0,0.68
4970.0,0.94
4972.0,0.81
4974.0,0.72
4977.0,0.64
4979.0,0.69
4981.0,0.78
4983.0,0.92
4985.0,0.88
4987.0,0.98
4989.0,0.98
4991.0,0.99
4992.0,1.3
4994.0,1.18
4996.0,1.21
4998.0,1.18
5000.0,1.09
5002.0,1.06
5004.0,1.25
5006.0,1.06
5008.0,1.25
5010.0,1.04
5012.0,0.67
5014.0,0.19
5016.0,0.0
5018.0,0.0
5021.0,0.0
5023.0,0.0
5025.0,0.0
5027.0,0.0
5029.0,0.0
5031.0,0.0
5033.0,0.0
5035.0,0.0
5036.0,0.0
5038.0,0.0
5040.0,0.0
5042.0,0.0
5044.0,0.0
5046.0,0.0
5048.0,0.0
5050.0,0.0
5052.0,0.0
5054.0,0.0
5056.0,0.0
5058.0,0.0
5060.0,0.0
5063.0,0.0
5065.0,0.0
5067.0,0.0
5069.0,0.0
5071.0,0.0
5073.0,0.0
5075.0,0.0
5077.0,0.0
5079.0,0.0
5080.0,0.0
5082.0,0.0
5084.0,0.0
5086.0,0.0
5088.0,0.0
5090.0,0.0
5092.0,0.0
5094.0,0.08
5096.0,0.33
5098.0,0.66
5100.0,0.74
5102.0,0.78
5105.0,0.86
5107.0,0.82
5109.0,0.9
5111.0,0.72
5113.0,0.88
5115.0,0.92
5117.0,1.02
5119.0,1.03
5121.0,0.75
5122.0,1.01
5124.0,1.1
5126.0,1.01
5128.0,0.91
5130.0,0.78
5132.0,0.79
5134.0,0.67
5136.0,0.55
5138.0,0.67
5140.0,0.79
5142.0,0.76
5144.0,0.65
5146.0,0.54
5149.0,0.17
5151.0,0.0
5153.0,0.13
5155.0,0.01
5157.0,0.21
5159.0,0.42
5161.0,0.46
5163.0,0.53
5165.0,0.52
5166.0,0.5
5168.0,0.27
5170.0,0.0
5172.0,0.0
5174.0,0.15
5176.0,0.19
5178.0,0.27
5180.0,0.21
5182.0,0.47
5184.0,0.3
5186.0,0.27
5188.0,0.0
5191.0,0.0
5193.0,0.0
5195.0,0.0
5197.0,0.0
5199.0,0.06
5201.0,0.1
5203.0,0.12
5205.0,0.43
5207.0,0.44
5209.0,0.37
5210.0,0.65
5212.0,0.79
5214.0,0.82
5216.0,0.87
5218.0,1.1
5220.0,1.13
5222.0,1.31
5224.0,1.31
5226.0,1.15
5228.0,1.17
5230.0,0.97
5233.0,1.23
5235.0,1.32
5237.0,1.31
5239.0,1.49
5241.0,1.59
5243.0,1.57
5245.0,1.93
5247.0,1.97
5249.0,1.83
5251.0,1.63
5252.0,1.69
5254.0,1.52
5256.0,1.51
5258.0,1.86
5260.0,2.06
5262.0,2.24
5264.0,2.34
5266.0,2.05
5268.0,2.13
5270.0,1.99
5272.0,2.2
5274.0,2.22
5277.0,2.18
5279.0,2.32
5281.0,2.39
5283.0,2.62
5285.0,2.86
5287.0,2.74
5289.0,2.63
5291.0,2.53
5293.0,2.68
5295.0,2.56
5296.0,2.63
5298.0,2.74
5300.0,2.79
5302.0,2.89
5304.0,2.86
5306.0,2.92
5308.0,2.87
5310.0,2.65
5312.0,2.77
5314.0,2.95
5316.0,3.08
5319.0,3.12
5321.0,3.3
5323.0,3.3
5325.0,3.3
5327.0,3.3
5329.0,3.3
5331.0,3.3
5333.0,3.3
5335.0,3.3
5337.0,3.3
5339.0,3.3
5340.0,3.3
5342.0,3.3
5344.0,3.3
5346.0,3.3
5348.0,3.3
5350.0,3.3
5352.0,3.3
5354.0,3.3
5356.0,3.3
5358.0,3.3
5361.0,3.3
5363.0,3.3
5365.0,3.3
5367.0,3.3
5369.0,3.3
5371.0,3.3
5373.0,3.3
5375.0,3.3
5377.0,3.3
5379.0,3.3
5381.0,3.3
5382.0,3.3
5384.0,3.29
5386.0,3.09
5388.0,2.83
5390.0,2.58
5392.0,2.6
5394.0,2.48
5396.0,2.58
5398.0,2.64
5400.0,2.63
5402.0,2.72
5405.0,2.98
5407.0,2.84
5409.0,2.8
5411.0,2.52
5413.0,2.51
5415.0,2.31
5417.0,2.21
5419.0,2.15
5421.0,2.23
5423.0,2.28
5425.0,2.26
5426.0,2.1
5428.0,2.02
5430.0,1.81
5432.0,1.92
5434.0,1.78
5436.0,1.72
5438.0,1.84
5440.0,1.9
5442.0,2.04
5444.0,2.05
5447.0,1.91
5449.0,1.65
5451.0,1.3
5453.0,1.29
5455.0,1.19
5457.0,1.09
5459.0,1.15
5461.0,1.23
5463.0,1.29
5465.0,1.36
5467.0,1.37
5469.0,1.17
5470.0,1.02
5472.0,0.99
5474.0,0.91
5476.0,0.84
5478.0,1.01
5480.0,1.18
5482.0,1.42
5484.0,1.43
5486.0,1.41
5489.0,1.11
5491.0,1.02
5493.0,0.97
5495.0,0.95
5497.0,1.05
5499.0,1.08
5501.0,1.17
5503.0,1.35
5505.0,1.31
5507.0,1.2
5509.0,1.03
5511.0,0.96
5512.0,0.86
5514.0,0.86
5516.0,0.88
5518.0,1.03
5520.0,1.08
5522.0,1.21
5524.0,1.21
5526.0,1.15
5528.0,1.0
5530.0,0.94
5533.0,1.09
5535.0,1.11
5537.0,1.02
5539.0,1.29
5541.0,1.39
5543.0,1.41
5545.0,1.46
5547.0,1.5
5549.0,1.21
5551.0,1.03
5553.0,1.07
5555.0,1.11
5556.0,1.25
5558.0,1.4
5560.0,1.43
5562.0,1.62
5564.0,1.69
5566.0,2.01
5568.0,1.92
5570.0,1.68
5572.0,1.58
5575.0,1.59
5577.0,1.56
5579.0,1.81
5581.0,1.8
5583.0,1.87
5585.0,1.83
5587.0,1.51
5589.0,1.49
5591.0,2.4
5593.0,3.15
5595.0,3.25
5597.0,3.3
5599.0,3.3
5600.0,3.3
5602.0,3.3
5604.0,3.23
5606.0,3.14
5608.0,3.15
5610.0,2.95
5612.0,2.85
5614.0,2.76
5617.0,2.71
5619.0,2.42
5621.0,2.45
5623.0,2.48
5625.0,2.59
5627.0,2.83
5629.0,2.7
5631.0,2.38
5633.0,2.26
5635.0,2.12
5637.0,2.09
5639.0,2.08
5641.0,2.15
5642.0,2.19
5644.0,2.12
5646.0,2.06
5648.0,2.02
5650.0,1.81
5652.0,1.74
5654.0,1.68
5656.0,1.72
5658.0,1.88
5661.0,2.04
5663.0,2.16
5665.0,2.17
5667.0,2.11
5669.0,1.85
5671.0,1.6
5673.0,1.46
5675.0,1.34
5677.0,1.37
5679.0,1.48
5681.0,1.58
5683.0,1.7
5685.0,1.57
5686.0,1.53
5688.0,1.45
5690.0,1.37
5692.0,1.42
5694.0,1.44
5696.0,1.41
5698.0,1.63
5700.0,1.62
5703.0,1.68
5705.0,1.61
5707.0,1.54
5709.0,1.45
5711.0,1.39
5713.0,1.39
5715.0,1.4
5717.0,1.41
5719.0,1.14
5721.0,0.91
5723.0,1.07
5725.0,1.15
5727.0,1.24
5729.0,1.3
5730.0,1.28
5732.0,1.26
5734.0,1.31
5736.0,1.46
5738.0,1.71
5740.0,1.66
5742.0,1.66
5745.0,1.61
5747.0,1.64
5749.0,1.42
5751.0,1.36
5753.0,1.29
5755.0,1.17
5757.0,1.28
5759.0,1.41
5761.0,1.47
5763.0,1.56
5765.0,1.59
5767.0,1.65
5769.0,1.51
5771.0,1.75
5772.0,1.88
5774.0,1.95
5776.0,2.03
5778.0,2.03
5780.0,2.12
5782.0,2.26
5784.0,2.23
5786.0,2.14
5789.0,1.95
5791.0,1.79
5793.0,1.78
5795.0,1.69
5797.0,1.83
5799.0,1.72
5801.0,1.75
5803.0,1.71
5805.0,1.78
5807.0,1.61
5809.0,1.21
5811.0,0.94
5813.0,1.03
5815.0,1.1
5816.0,1.15
5818.0,1.25
5820.0,1.37
5822.0,1.47
5824.0,1.34
5826.0,1.19
5828.0,1.03
5831.0,0.96
5833.0,0.87
5835.0,0.75
5837.0,0.88
5839.0,0.95
5841.0,1.08
5843.0,1.2
5845.0,1.16
5847.0,1.31
5849.0,0.96
5851.0,0.73
5853.0,0.55
5855.0,0.45
5857.0,0.69
5859.0,0.89
5860.0,1.04
5862.0,1.09
5864.0,1.14
5866.0,1.17
5868.0,0.85
5870.0,0.89
5873.0,0.8
5875.0,0.64
5877.0,0.73
5879.0,0.83
5881.0,0.9
5883.0,1.0
5885.0,0.98
5887.0,0.97
5889.0,0.79
5891.0,0.77
5893.0,0.82
5895.0,0.97
5897.0,1.07
5899.0,1.19
5901.0,1.27
5902.0,1.33
5904.0,1.2
5906.0,1.07
5908.0,0.83
5910.0,0.81
5912.0,1.06
5914.0,1.16
5917.0,1.25
5919.0,1.26
5921.0,1.21
5923.0,1.3
5925.0,1.3
5927.0,1.18
5929.0,0.94
5931.0,0.83
5933.0,0.75
5935.0,0.7
5937.0,0.71
5939.0,0.96
5941.0,1.02
5943.0,1.17
5945.0,1.2
5946.0,1.03
5948.0,0.84
5950.0,0.66
5952.0,0.47
5954.0,0.56
5956.0,0.59
5959.0,0.77
5961.0,0.85
5963.0,1.01
5965.0,1.05
5967.0,0.92
5969.0,0.84
5971.0,0.78
5973.0,0.88
5975.0,0.89
5977.0,0.83
5979.0,0.85
5981.0,1.02
5983.0,1.26
5985.0,1.04
5987.0,1.01
5989.0,0.87
5990.0,1.01
5992.0,1.17
5994.0,1.17
5996.0,1.17
5998.0,1.18
6001.0,1.31
6003.0,1.28
6005.0,1.11
6007.0,1.02
6009.0,0.8
6011.0,0.64
6013.0,0.81
6015.0,0.95
6017.0,1.08
6019.0,0.98
6021.0,1.15
6023.0,1.33
6025.0,1.25
6027.0,1.53
6029.0,1.29
6031.0,1.19
6033.0,1.38
6034.0,1.12
6036.0,1.23
6038.0,1.4
6040.0,1.4
6042.0,1.56
6045.0,1.4
6047.0,1.46
6049.0,1.41
6051.0,1.3
6053.0,0.92
6055.0,1.05
6057.0,1.06
6059.0,1.08
6061.0,1.4
6063.0,1.46
6065.0,1.28
6067.0,1.08
6069.0,0.65
6071.0,0.4
6073.0,0.35
6075.0,0.61
6076.0,0.45
6078.0,0.59
6080.0,0.77
6082.0,0.92
6084.0,0.39
6087.0,0.25
6089.0,0.07
6091.0,0.1
6093.0,0.23
6095.0,0.0
6097.0,0.09
6099.0,0.09
6101.0,0.0
6103.0,0.02
6105.0,0.0
6107.0,0.0
6109.0,0.0
6111.0,0.0
6113.0,0.0
6115.0,0.0
6117.0,0.0
6119.0,0.0
6120.0,0.0
6122.0,0.0
6124.0,0.0
6126.0,0.0
6129.0,0.0
6131.0,0.0
6133.0,0.0
6135.0,0.0
6137.0,0.0
6139.0,0.0
6141.0,0.0
6143.0,0.0
6145.0,0.0
6147.0,0.0
6149.0,0.0
6151.0,0.0
6153.0,0.0
6155.0,0.0
6157.0,0.0
6159.0,0.0
6161.0,0.0
6163.0,0.0
6164.0,0.0
6166.0,0.0
6168.0,0.0
6170.0,0.0
6173.0,0.0
6175.0,0.0
6177.0,0.0
6179.0,0.13
6181.0,0.34
6183.0,0.42
6185.0,0.59
6187.0,0.32
6189.0,0.46
6191.0,0.55
6193.0,0.59
6195.0,0.73
6197.0,1.09
6199.0,1.24
6201.0,1.4
6203.0,1.53
6205.0,1.44
6207.0,1.44
6208.0,1.35
6210.0,1.42
6212.0,1.41
6215.0,1.6
6217.0,1.52
6219.0,1.81
6221.0,1.93
6223.0,1.99
6225.0,1.85
6227.0,1.9
6229.0,1.9
6231.0,1.77
6233.0,2.18
6235.0,2.6
6237.0,2.75
6239.0,2.85
6241.0,3.03
6243.0,3.19
6245.0,3.08
6247.0,2.97
6249.0,2.62
6251.0,2.55
6252.0,2.5
6254.0,2.59
6257.0,2.69
6259.0,2.84
6261.0,2.87
6263.0,3.06
6265.0,2.96
6267.0,2.99
6269.0,2.6
6271.0,2.55
6273.0,2.59
6275.0,2.39
6277.0,2.65
6279.0,3.28
6281.0,3.3
6283.0,3.17
6285.0,2.96
6287.0,2.65
6289.0,2.45
6291.0,2.47
6293.0,2.52
6295.0,2.57
6296.0,2.62
6298.0,2.67
6301.0,2.79
6303.0,2.79
6305.0,2.75
6307.0,2.69
6309.0,2.49
6311.0,2.36
6313.0,2.46
6315.0,2.54
6317.0,2.55
6319.0,2.55
6321.0,2.66
6323.0,3.01
6325.0,3.23
6327.0,3.12
6329.0,2.89
6331.0,2.55
6333.0,2.44
6335.0,2.41
6337.0,2.38
6339.0,2.48
6340.0,2.56
6343.0,2.56
6345.0,2.42
6347.0,2.27
6349.0,1.99
6351.0,1.96
6353.0,1.81
6355.0,1.65
6357.0,2.0
6359.0,2.11
6361.0,2.3
6363.0,2.35
6365.0,2.28
6367.0,2.14
6369.0,1.86
6371.0,1.74
6373.0,1.81
6375.0,1.88
6377.0,2.11
6379.0,2.19
6381.0,2.76
6382.0,2.87
6385.0,2.45
6387.0,2.06
6389.0,1.87
6391.0,1.76
6393.0,1.8
6395.0,2.01
6397.0,2.19
6399.0,2.11
6401.0,2.25
6403.0,2.22
6405.0,2.17
6407.0,2.19
6409.0,2.19
6411.0,2.31
6413.0,2.25
6415.0,2.23
6417.0,3.3
6419.0,3.3
6421.0,3.3
6423.0,3.3
6425.0,3.3
6426.0,3.3
6429.0,3.3
6431.0,3.3
6433.0,3.3
6435.0,3.3
6437.0,3.3
6439.0,3.3
6441.0,3.3
6443.0,3.3
6445.0,3.3
6447.0,3.3
6449.0,3.3
6451.0,3.3
6453.0,3.3
6455.0,3.3
6457.0,3.3
6459.0,3.3
6461.0,3.3
6463.0,3.3
6465.0,3.3
6467.0,3.3
6468.0,3.3
6471.0,3.03
6473.0,2.48
6475.0,2.56
6477.0,2.68
6479.0,2.54
6481.0,2.53
6483.0,2.16
6485.0,2.94
6487.0,3.3
6489.0,3.08
6491.0,2.16
6493.0,1.51
6495.0,1.35
6497.0,1.37
6499.0,1.42
6501.0,1.5
6503.0,1.55
6505.0,1.63
6507.0,1.34
6509.0,1.04
6511.0,0.52
6513.0,0.4
6515.0,1.13
6517.0,1.45
6519.0,1.15
6521.0,0.74
6523.0,0.76
6525.0,0.74
6527.0,0.84
6529.0,0.41
6531.0,0.18
6533.0,0.48
6535.0,1.08
6537.0,1.37
6539.0,1.35
6541.0,1.51
6543.0,1.36
6545.0,0.95
6547.0,0.62
6549.0,0.43
6551.0,0.25
6553.0,0.12
6554.0,0.21
6557.0,0.4
6559.0,0.54
6561.0,0.51
6563.0,0.4
6565.0,0.55
6567.0,0.49
6569.0,0.52
6571.0,0.42
6573.0,0.15
6575.0,0.0
6577.0,0.0
6579.0,0.35
6581.0,0.49
6583.0,0.15
6585.0,0.22
6587.0,0.14
6589.0,0.0
6591.0,0.16
6593.0,0.35
6595.0,0.36
6598.0,0.94
6599.0,0.36
6601.0,0.35
6603.0,1.09
6605.0,1.41
6607.0,1.48
6609.0,1.29
6611.0,1.21
6613.0,0.99
6615.0,0.88
6617.0,0.74
6619.0,0.5
6621.0,0.5
6623.0,0.43
6625.0,0.29
6627.0,0.12
6629.0,0.0
6631.0,0.05
6633.0,0.13
6635.0,0.18
6637.0,0.44
6639.0,0.71
6641.0,0.86
6643.0,1.01
6645.0,1.05
6647.0,0.85
6649.0,0.64
6651.0,0.76
6653.0,0.64
6655.0,0.54
6657.0,0.74
6659.0,0.94
6661.0,1.11
6663.0,1.18
6665.0,1.6
6667.0,1.63
6669.0,1.01
6671.0,0.63
6673.0,0.37
6675.0,0.44
6677.0,0.52
6679.0,0.61
6681.0,0.83
6684.0,0.75
6685.0,0.65
6687.0,0.56
6689.0,0.52
6691.0,0.58
6693.0,0.66
6695.0,0.76
6697.0,0.92
6699.0,1.05
6701.0,1.43
6703.0,1.8
6705.0,2.06
6707.0,1.58
6709.0,1.2
6711.0,1.15
6713.0,1.3
6715.0,1.3
6717.0,2.03
6719.0,1.76
6721.0,1.43
6723.0,1.16
6726.0,1.12
6728.0,0.95
6729.0,0.97
6731.0,1.41
6733.0,1.98
6735.0,2.01
6737.0,1.92
6739.0,1.92
6741.0,2.09
6743.0,2.1
6745.0,2.17
6747.0,1.9
6749.0,1.79
6751.0,1.57
6753.0,1.53
6755.0,1.61
6757.0,1.83
6759.0,1.96
6761.0,2.11
6763.0,2.76
6765.0,2.6
6767.0,2.05
6770.0,1.43
6772.0,1.07
6773.0,1.03
6775.0,1.08
6777.0,1.13
6779.0,1.23
6781.0,1.89
6783.0,1.99
6785.0,1.95
6787.0,1.79
6789.0,2.27
6791.0,2.59
6793.0,2.16
6795.0,1.65
6797.0,1.48
6799.0,2.12
6801.0,2.88
6803.0,3.07
6805.0,3.18
6807.0,3.16
6809.0,3.01
6812.0,3.01
6814.0,3.07
6815.0,3.3
6817.0,3.3
6819.0,3.3
6821.0,3.3
6823.0,3.3
6825.0,3.3
6827.0,3.3
6829.0,3.3
6831.0,3.09
6833.0,2.45
6835.0,2.17
6837.0,2.05
6839.0,1.98
6841.0,2.06
6843.0,1.9
6845.0,1.74
6847.0,1.51
6849.0,1.47
6851.0,1.25
6854.0,0.98
6856.0,0.92
6858.0,0.94
6859.0,0.77
6861.0,0.0
6863.0,0.0
6865.0,0.31
6867.0,0.66
6869.0,0.23
6871.0,0.53
6873.0,0.19
6875.0,0.47
6877.0,0.84
6879.0,1.12
6881.0,1.38
6883.0,1.82
6885.0,1.71
6887.0,1.13
6889.0,0.85
6891.0,0.8
6893.0,0.6
6895.0,0.83
6898.0,1.01
6900.0,1.61
6901.0,1.55
6903.0,1.99
6905.0,2.71
6907.0,2.61
6909.0,2.48
6911.0,2.55
6913.0,2.54
6915.0,2.42
6917.0,2.51
6919.0,2.45
6921.0,2.35
6923.0,2.46
6925.0,2.78
6927.0,1.94
6929.0,2.15
6931.0,2.1
6933.0,1.05
6935.0,1.82
6937.0,2.12
6940.0,2.27
6942.0,2.26
6944.0,2.06
6945.0,1.88
6947.0,1.7
6949.0,1.68
6951.0,1.3
6953.0,1.19
6955.0,1.49
6957.0,1.33
6959.0,1.36
6961.0,1.57
6963.0,1.4
6965.0,1.19
6967.0,0.71
6969.0,0.7
6971.0,0.59
6973.0,0.64
6975.0,0.57
6977.0,0.7
6979.0,0.0
6982.0,0.0
6984.0,0.0
6986.0,0.04
6988.0,1.12
6989.0,1.28
6991.0,1.25
6993.0,1.09
6995.0,0.99
6997.0,0.43
6999.0,0.26
7001.0,0.0
7003.0,0.0
7005.0,0.0
7007.0,0.0
7009.0,0.0
7011.0,0.0
7013.0,0.0
7015.0,0.0
7017.0,0.0
7019.0,0.0
7021.0,0.0
7023.0,0.0
7026.0,0.0
7028.0,0.0
7030.0,0.0
7032.0,0.0
7033.0,0.0
7035.0,0.0
7037.0,0.0
7039.0,0.0
7041.0,0.0
7043.0,0.0
7045.0,0.0
7047.0,0.0
7049.0,0.0
7051.0,0.0
7053.0,0.0
7055.0,0.0
7057.0,0.0
7059.0,0.0
7061.0,0.0
7063.0,0.0
7065.0,0.0
7068.0,0.0
7070.0,0.0
7072.0,0.0
7074.0,0.0
7076.0,0.0
7077.0,0.0
7079.0,0.02
7081.0,0.34
7083.0,0.33
7085.0,0.31
7087.0,0.22
7089.0,0.37
7091.0,0.52
7093.0,0.7
7095.0,0.8
7097.0,1.03
7099.0,1.23
7101.0,1.38
7103.0,1.48
7105.0,1.45
7107.0,1.48
7110.0,1.54
7112.0,1.48
7114.0,1.8
7116.0,1.73
7118.0,1.77
7120.0,1.65
7121.0,1.48
7123.0,1.94
7125.0,1.69
7127.0,1.41
7129.0,1.35
7131.0,1.33
7133.0,1.2
7135.0,1.16
7137.0,1.25
7139.0,1.41
7141.0,1.46
7143.0,1.41
7145.0,1.18
7147.0,0.87
7149.0,0.99
7151.0,0.91
7154.0,0.88
7156.0,1.08
7158.0,1.33
7160.0,1.45
7162.0,1.75
7164.0,1.76
7165.0,1.75
7167.0,1.5
7169.0,1.26
7171.0,1.34
7173.0,1.52
7175.0,1.66
7177.0,1.72
7179.0,1.9
7181.0,2.08
7183.0,2.03
7185.0,1.97
7187.0,1.77
7189.0,1.65
7191.0,1.72
7193.0,1.7
7196.0,1.83
7198.0,2.21
7200.0,2.17
7202.0,2.04
7204.0,2.39
7206.0,2.2
7208.0,2.37
7209.0,2.37
7211.0,2.34
7213.0,2.4
7215.0,2.53
7217.0,2.93
7219.0,3.3
7221.0,3.3
7223.0,3.3
7225.0,3.3
7227.0,3.3
7229.0,2.8
7231.0,2.18
7233.0,1.68
7235.0,1.4
7238.0,1.49
7240.0,1.45
7242.0,1.56
7244.0,1.55
7246.0,1.55
7248.0,1.28
7250.0,1.28
7252.0,1.88
7253.0,2.88
7255.0,3.29
7257.0,3.3
7259.0,3.3
7261.0,3.3
7263.0,3.3
7265.0,2.99
7267.0,2.47
7269.0,2.11
7271.0,1.66
7273.0,1.33
7275.0,0.96
7277.0,0.65
7279.0,0.62
7282.0,0.73
7284.0,0.7
7286.0,0.74
7288.0,0.69
7290.0,0.89
7292.0,1.01
7294.0,1.18
7296.0,1.42
7297.0,1.52
7299.0,1.61
7301.0,1.73
7303.0,1.66
7305.0,3.27
7307.0,3.3
7309.0,3.25
7311.0,1.83
7313.0,1.5
7315.0,1.64
7317.0,1.95
7319.0,2.25
7321.0,2.36
7324.0,2.29
7326.0,2.06
7328.0,1.79
7330.0,1.91
7332.0,2.25
7334.0,2.19
7336.0,2.29
7338.0,2.28
7340.0,2.28
7341.0,2.65
7343.0,3.13
7345.0,2.57
7347.0,2.12
7349.0,1.96
7351.0,1.85
7353.0,1.84
7355.0,2.0
7357.0,2.01
7359.0,2.35
7361.0,2.48
7363.0,2.54
7366.0,2.39
7368.0,2.21
7370.0,3.29
7372.0,3.3
7374.0,3.3
7376.0,3.3
7378.0,3.07
7380.0,2.6
7382.0,2.29
7383.0,1.95
7385.0,1.74
7387.0,1.49
7389.0,1.47
7391.0,1.72
7393.0,2.65
7395.0,2.98
7397.0,2.49
7399.0,3.29
7401.0,2.88
7403.0,2.54
7405.0,2.17
7407.0,1.9
7410.0,1.83
7412.0,1.54
7414.0,3.3
7416.0,3.3
7418.0,3.3
7420.0,3.3
7422.0,3.3
7424.0,3.3
7426.0,3.3
7427.0,3.3
7429.0,3.3
7431.0,3.3
7433.0,3.3
7435.0,3.3
7437.0,3.3
7439.0,3.3
7441.0,3.27
7443.0,3.06
7445.0,2.94
7447.0,2.79
7449.0,2.55
7452.0,2.22
7454.0,2.08
7456.0,1.92
7458.0,1.74
7460.0,1.73
7462.0,1.74
7464.0,1.55
7466.0,1.39
7468.0,0.98
7470.0,0.73
7471.0,0.7
7473.0,0.75
7475.0,0.82
7477.0,0.83
7479.0,0.92
7481.0,1.14
7483.0,1.02
7485.0,0.83
7487.0,0.67
7489.0,0.67
7491.0,0.68
7494.0,1.15
7496.0,1.35
7498.0,1.92
7500.0,3.3
7502.0,2.89
7504.0,1.53
7506.0,1.05
7508.0,0.64
7510.0,0.61
7512.0,0.52
7514.0,0.42
7515.0,0.52
7517.0,0.59
7519.0,0.77
7521.0,0.66
7523.0,0.55
7525.0,0.6
7527.0,0.68
7529.0,0.66
7531.0,0.68
7533.0,0.82
7535.0,0.88
7538.0,0.96
7540.0,1.1
7542.0,1.1
7544.0,3.3
7546.0,3.3
7548.0,3.3
7550.0,3.3
7552.0,3.3
7554.0,3.3
7556.0,3.2
7558.0,2.73
7559.0,2.18
7561.0,1.59
7563.0,1.4
7565.0,2.15
7567.0,1.02
7569.0,0.0
7571.0,0.0
7573.0,0.0
7575.0,0.0
7577.0,0.0
7580.0,0.0
7582.0,0.0
7584.0,0.0
7586.0,0.0
7588.0,0.0
7590.0,0.0
7592.0,0.0
7594.0,0.16
7596.0,0.17
7598.0,0.57
7600.0,1.06
7601.0,0.99
7603.0,0.98
7605.0,1.04
7607.0,0.68
7609.0,0.75
7611.0,1.72
7613.0,1.88
7615.0,1.74
7617.0,1.45
7619.0,1.21
7622.0,1.09
7624.0,1.01
7626.0,1.15
7628.0,1.23
7630.0,1.32
7632.0,1.05
7634.0,2.03
7636.0,2.68
7638.0,1.76
7640.0,1.07
7642.0,0.84
7644.0,0.8
7646.0,0.92
7647.0,0.76
7649.0,0.75
7651.0,0.79
7653.0,1.11
7655.0,1.27
7657.0,1.42
7659.0,1.37
7661.0,1.56
7663.0,1.57
7666.0,1.47
7668.0,1.12
7670.0,1.06
7672.0,1.24
7674.0,1.66
7676.0,1.76
7678.0,1.68
7680.0,1.61
7682.0,1.57
7684.0,1.35
7686.0,1.16
7688.0,1.01
7689.0,0.9
7691.0,0.96
7693.0,1.09
7695.0,1.01
7697.0,1.05
7699.0,1.7
7701.0,2.17
7703.0,2.35
7705.0,2.13
7708.0,2.81
7710.0,3.14
7712.0,3.0
7714.0,1.62
7716.0,1.2
7718.0,0.93
7720.0,0.96
7722.0,0.84
7724.0,0.85
7726.0,0.85
7728.0,0.71
7730.0,0.64
7732.0,0.98
7733.0,1.18
7735.0,1.37
7737.0,1.32
7739.0,1.42
7741.0,1.08
7743.0,1.04
7745.0,0.85
7747.0,0.54
7750.0,0.51
7752.0,0.54
7754.0,0.55
7756.0,0.65
7758.0,0.81
7760.0,1.11
7762.0,1.17
7764.0,1.16
7766.0,0.93
7768.0,0.77
7770.0,0.68
7772.0,0.78
7774.0,0.78
7776.0,1.01
7777.0,0.98
7779.0,1.31
7781.0,1.57
7783.0,1.61
7785.0,1.38
7787.0,1.42
7789.0,1.59
7791.0,1.33
7794.0,2.12
7796.0,2.85
7798.0,2.85
7800.0,3.04
7802.0,2.02
7804.0,1.05
7806.0,0.66
7808.0,0.45
7810.0,0.33
7812.0,0.3
7814.0,0.54
7816.0,1.08
7818.0,1.45
7819.0,1.17
7821.0,1.21
7823.0,1.03
7825.0,1.02
7827.0,0.71
7829.0,0.64
7831.0,0.62
7833.0,0.41
7836.0,0.32
7838.0,0.7
7840.0,1.41
7842.0,1.28
7844.0,1.35
7846.0,1.01
7848.0,0.64
7850.0,0.73
7852.0,0.45
7854.0,0.35
7856.0,0.49
7858.0,0.55
7860.0,1.3
7862.0,1.9
7863.0,2.49
7865.0,2.37
7867.0,0.86
7869.0,0.84
7871.0,0.22
7873.0,0.12
7875.0,0.63
7878.0,0.99
7880.0,1.4
7882.0,1.33
7884.0,1.35
7886.0,1.24
7888.0,2.79
7890.0,3.3
7892.0,3.3
7894.0,3.3
7896.0,3.21
7898.0,3.12
7900.0,2.99
7902.0,1.09
7904.0,0.21
7906.0,0.0
7907.0,0.0
7909.0,0.0
7911.0,0.0
7913.0,0.04
7915.0,1.37
7917.0,0.7
7919.0,0.68
7922.0,0.77
7924.0,1.1
7926.0,1.38
7928.0,1.49
7930.0,1.83
7932.0,1.96
7934.0,1.76
7936.0,1.81
7938.0,1.67
7940.0,1.8
7942.0,1.79
7944.0,1.29
7946.0,1.59
7948.0,2.68
7950.0,2.56
7951.0,0.98
7953.0,0.56
7955.0,0.56
7957.0,0.88
7959.0,0.95
7961.0,0.78
7964.0,1.14
7966.0,0.93
7968.0,0.43
7970.0,0.27
7972.0,0.46
7974.0,0.59
7976.0,0.88
7978.0,0.88
7980.0,0.89
7982.0,0.45
7984.0,0.66
7986.0,1.05
7988.0,0.96
7990.0,1.24
7992.0,1.15
7993.0,2.17
7995.0,3.3
7997.0,3.3
7999.0,3.3
8001.0,3.3
8003.0,3.3
8006.0,3.27
8008.0,3.04
8010.0,2.73
8012.0,2.55
8014.0,1.37
8016.0,0.0
8018.0,0.0
8020.0,0.0
8022.0,0.0
8024.0,0.0
8026.0,0.0
8028.0,0.68
8030.0,0.29
8032.0,1.19
8034.0,0.86
8036.0,0.37
8037.0,0.5
8039.0,0.87
8041.0,1.44
8043.0,2.11
8045.0,1.81
8047.0,1.56
8050.0,1.38
8052.0,2.35
8054.0,1.62
8056.0,1.64
8058.0,1.83
8060.0,2.53
8062.0,2.5
8064.0,2.13
8066.0,2.2
8068.0,1.92
8070.0,1.4
8072.0,1.7
8074.0,2.64
8076.0,2.92
8078.0,2.58
8079.0,2.71
8081.0,3.3
8083.0,2.51
8085.0,2.41
8087.0,2.27
8089.0,1.84
8092.0,1.87
8094.0,1.68
8096.0,2.31
8098.0,2.01
8100.0,1.95
8102.0,2.1
8104.0,2.26
8106.0,2.11
8108.0,1.73
8110.0,1.37
8112.0,1.37
8114.0,2.9
8116.0,2.0
8118.0,1.12
8120.0,0.84
8122.0,0.91
8123.0,2.04
8125.0,1.99
8127.0,1.27
8129.0,1.1
8131.0,2.09
8134.0,1.19
8136.0,1.44
8138.0,1.67
8140.0,2.04
8142.0,2.44
8144.0,2.16
8146.0,2.05
8148.0,1.86
8150.0,2.25
8152.0,3.3
8154.0,3.3
8156.0,3.3
8158.0,3.3
8160.0,3.3
8162.0,3.3
8164.0,3.09
8165.0,2.66
8167.0,2.44
8169.0,2.28
8171.0,2.01
8173.0,1.76
8175.0,1.96
8178.0,2.05
8180.0,2.13
8182.0,2.03
8184.0,1.64
8186.0,1.38
8188.0,1.41
8190.0,1.58
8192.0,1.86
8194.0,1.93
8196.0,1.96
8198.0,1.91
8200.0,1.9
8202.0,1.69
8204.0,1.59
8206.0,1.35
8208.0,1.18
8209.0,0.98
8211.0,0.85
8213.0,0.85
8215.0,0.75
8217.0,0.66
8220.0,0.56
8222.0,0.54
8224.0,0.54
8226.0,0.45
8228.0,0.58
8230.0,0.58
8232.0,0.56
8234.0,0.36
8236.0,0.61
8238.0,0.83
8240.0,0.99
8242.0,1.0
8244.0,0.94
8246.0,0.69
8248.0,0.58
8250.0,0.41
8252.0,0.47
8253.0,0.48
8255.0,0.68
8257.0,0.89
8259.0,1.1
8262.0,1.1
8264.0,0.93
8266.0,0.76
8268.0,0.66
8270.0,0.57
8272.0,0.66
8274.0,0.81
8276.0,1.03
8278.0,1.09
8280.0,1.23
8282.0,1.21
8284.0,1.1
8286.0,0.97
8288.0,1.04
8290.0,1.05
8292.0,1.1
8294.0,1.11
8295.0,1.25
8297.0,1.45
8299.0,1.56
8301.0,1.41
8303.0,1.35
8306.0,1.15
8308.0,1.18
8310.0,1.16
8312.0,1.23
8314.0,1.18
8316.0,1.27
8318.0,1.4
8320.0,1.55
8322.0,1.51
8324.0,1.42
8326.0,1.23
8328.0,1.2
8330.0,1.16
8332.0,0.93
8334.0,1.11
8336.0,1.69
8337.0,2.01
8339.0,2.23
8341.0,2.29
8343.0,2.15
8345.0,2.09
8348.0,1.99
8350.0,1.98
8352.0,2.25
8354.0,2.32
8356.0,2.01
8358.0,2.12
8360.0,2.1
8362.0,2.08
8364.0,1.87
8366.0,1.65
8368.0,1.44
8370.0,1.87
8372.0,2.02
8374.0,2.12
8376.0,2.08
8378.0,2.09
8380.0,1.98
8381.0,1.76
8383.0,1.58
8385.0,1.38
8387.0,1.12
8390.0,1.06
8392.0,1.19
8394.0,1.2
8396.0,1.31
8398.0,1.39
8400.0,1.44
8402.0,1.28
8404.0,1.2
8406.0,1.05
8408.0,1.23
8410.0,1.42
8412.0,1.89
8414.0,2.11
8416.0,2.08
8418.0,1.84
8420.0,1.77
8422.0,1.62
8423.0,1.66
8425.0,1.46
8427.0,1.16
8429.0,1.07
8431.0,1.37
8434.0,1.7
8436.0,1.67
8438.0,1.69
8440.0,1.69
8442.0,1.55
8444.0,1.46
8446.0,1.06
8448.0,0.96
8450.0,0.72
8452.0,0.62
8454.0,0.64
8456.0,0.79
8458.0,0.91
8460.0,1.12
8462.0,0.99
8464.0,0.8
8466.0,0.58
8467.0,0.5
8469.0,0.36
8471.0,0.39
8473.0,0.39
8476.0,0.66
8478.0,0.88
8480.0,0.8
8482.0,0.75
8484.0,0.82
8486.0,1.25
8488.0,1.38
8490.0,1.3
8492.0,1.37
8494.0,3.3
8496.0,3.3
8498.0,3.3
8500.0,3.3
8502.0,3.3
8504.0,3.3
8506.0,3.3
8508.0,3.3
8509.0,3.3
8511.0,3.3
8513.0,3.3
8515.0,1.75
8518.0,0.0
8520.0,1.67
8522.0,2.62
8524.0,2.61
8526.0,1.83
8528.0,0.41
8530.0,0.55
8532.0,1.96
8534.0,2.43
8536.0,2.54
8538.0,2.16
8540.0,1.72
8542.0,1.44
8544.0,1.54
8546.0,0.91
8548.0,0.8
8550.0,0.19
8552.0,0.21
8553.0,0.3
8555.0,0.0
8557.0,2.15
8559.0,0.0
8562.0,0.72
8564.0,0.0
8566.0,0.0
8568.0,0.0
8570.0,0.0
8572.0,0.0
8574.0,0.0
8576.0,0.0
8578.0,0.0
8580.0,0.0
8582.0,0.0
8584.0,0.0
8586.0,0.73
8588.0,2.1
8590.0,0.0
8592.0,0.0
8594.0,0.0
8596.0,0.0
8597.0,0.0
8599.0,0.0
8601.0,0.0
8604.0,1.44
8606.0,2.25
8608.0,0.45
8610.0,0.85
8612.0,1.6
8614.0,1.58
8616.0,1.33
8618.0,0.6
8620.0,0.0
8622.0,0.0
8624.0,0.25
8626.0,0.0
8628.0,0.0
8630.0,0.0
8632.0,0.0
8634.0,0.0
8636.0,0.0
8638.0,0.0
8639.0,0.0
8641.0,0.0
8643.0,0.0
8646.0,0.0
8648.0,0.0
8650.0,0.0
8652.0,0.0
8654.0,0.0
8656.0,0.0
8658.0,0.0
8660.0,0.0
8662.0,0.0
8664.0,0.0
8666.0,0.0
8668.0,0.0
8670.0,0.0
8672.0,0.0
8674.0,3.03
8676.0,2.55
8678.0,1.4
8680.0,3.12
8682.0,3.03
8683.0,3.06
8685.0,3.3
8687.0,3.3
8690.0,3.24
8692.0,3.03
8694.0,2.95
8696.0,2.75
8698.0,2.36
8700.0,2.24
8702.0,1.84
8704.0,0.57
8706.0,0.0
8708.0,0.0
8710.0,0.0
8712.0,0.0
8714.0,0.0
8716.0,0.07
8718.0,0.6
8720.0,0.81
8722.0,0.97
8724.0,0.93
8726.0,0.87
8727.0,0.94
8729.0,2.02
8732.0,2.64
8734.0,2.81
8736.0,2.84
8738.0,1.64
8740.0,1.27
8742.0,1.16
8744.0,0.93
8746.0,0.8
8748.0,0.85
8750.0,0.86
8752.0,1.03
8754.0,1.22
8756.0,1.27
8758.0,1.48
8760.0,1.43
8762.0,1.61
8764.0,1.74
8766.0,1.95
8768.0,1.48
8770.0,1.36
8771.0,1.28
8774.0,1.46
8776.0,1.65
8778.0,1.86
8780.0,1.91
8782.0,1.69
8784.0,1.45
8786.0,1.59
8788.0,1.81
8790.0,1.71
8792.0,1.82
8794.0,1.76
8796.0,1.72
8798.0,1.72
8800.0,1.66
8802.0,1.69
8804.0,1.6
8806.0,1.56
8808.0,1.91
8810.0,1.86
8812.0,1.88
8814.0,1.92
8815.0,2.06
8818.0,2.27
8820.0,2.56
8822.0,2.49
8824.0,2.4
8826.0,2.21
8828.0,2.27
8830.0,2.17
8832.0,2.12
8834.0,2.18
8836.0,2.29
8838.0,2.32
8840.0,2.57
8842.0,2.42
8844.0,2.35
8846.0,2.2
8848.0,2.15
8850.0,2.03
8852.0,2.12
8854.0,2.12
8856.0,2.23
8857.0,2.36
8860.0,2.32
8862.0,2.16
8864.0,2.09
8866.0,1.8
8868.0,1.88
8870.0,1.76
8872.0,1.67
8874.0,1.92
8876.0,2.03
8878.0,2.1
8880.0,2.1
8882.0,2.01
8884.0,1.69
8886.0,1.63
8888.0,1.72
8890.0,1.66
8892.0,1.79
8894.0,1.85
8896.0,1.9
8898.0,1.96
8900.0,1.91
8902.0,1.83
8904.0,1.8
8906.0,1.72
8908.0,1.76
8910.0,1.91
8912.0,1.98
8914.0,1.95
8916.0,1.93
8918.0,1.87
8920.0,1.84
8922.0,1.72
8924.0,1.52
8926.0,1.44
8928.0,1.4
8930.0,1.5
8932.0,1.37
8934.0,1.43
8936.0,1.5
8938.0,1.61
8940.0,1.83
8942.0,2.05
8943.0,1.91
8946.0,1.77
8948.0,1.6
8950.0,1.73
8952.0,1.82
8954.0,1.94
8956.0,2.2
8958.0,2.28
8960.0,2.3
8962.0,2.04
8964.0,1.76
8966.0,1.55
8968.0,1.51
8970.0,1.49
8972.0,1.47
8974.0,1.64
8976.0,1.65
8978.0,1.82
8980.0,1.9
8982.0,1.66
8984.0,1.39
8986.0,1.66
8988.0,1.52
8990.0,1.47
8992.0,1.62
8994.0,1.64
8996.0,1.67
8998.0,1.76
9000.0,1.71
9002.0,1.61
9004.0,2.63
9006.0,1.85
9008.0,1.56
9010.0,1.33
9012.0,1.4
9014.0,1.41
9016.0,1.43
9018.0,1.46
9020.0,1.4
9022.0,1.36
9024.0,1.37
9026.0,1.25
9028.0,1.1
9031.0,1.03
9032.0,1.16
9034.0,1.18
9036.0,1.27
9038.0,1.42
9040.0,1.51
9042.0,1.39
9044.0,1.24
9046.0,1.13
9048.0,1.06
9050.0,1.08
9052.0,1.09
9054.0,1.09
9056.0,1.26
9058.0,1.5
9060.0,1.35
9062.0,1.16
9064.0,0.92
9066.0,0.68
9068.0,0.68
9070.0,0.64
9073.0,0.71
9075.0,0.7
9076.0,0.79
9078.0,1.11
9080.0,1.07
9082.0,0.91
9084.0,0.74
9086.0,0.45
9088.0,0.35
9090.0,0.57
9092.0,0.91
9094.0,1.07
9096.0,1.16
9098.0,1.45
9100.0,1.44
9102.0,1.41
9104.0,1.25
9106.0,1.17
9108.0,1.1
9110.0,1.19
9112.0,1.28
9114.0,1.4
9117.0,1.47
9119.0,1.7
9120.0,1.65
9122.0,1.49
9124.0,1.31
9126.0,1.05
9128.0,1.05
9130.0,1.3
9132.0,2.51
9134.0,2.95
9136.0,3.3
9138.0,3.3
9140.0,3.26
9142.0,3.21
9144.0,2.98
9146.0,2.78
9148.0,2.71
9150.0,2.72
9152.0,2.72
9154.0,2.75
9156.0,2.85
9159.0,2.95
9161.0,3.08
9163.0,2.8
9164.0,2.56
9166.0,2.19
9168.0,1.83
9170.0,1.9
9172.0,1.9
9174.0,2.13
9176.0,2.46
9178.0,2.53
9180.0,2.61
9182.0,2.28
9184.0,1.77
9186.0,1.55
9188.0,1.61
9190.0,1.67
9192.0,1.9
9194.0,1.95
9196.0,2.11
9198.0,2.17
9201.0,1.98
9203.0,1.82
9205.0,1.5
9207.0,1.13
9208.0,1.15
9210.0,0.76
9212.0,0.85
9214.0,1.03
9216.0,1.15
9218.0,1.14
9220.0,1.25
9222.0,1.13
9224.0,0.89
9226.0,0.83
9228.0,1.15
9230.0,1.0
9232.0,0.88
9234.0,0.96
9236.0,1.06
9238.0,1.16
9240.0,1.26
9242.0,1.25
9245.0,0.94
9247.0,0.65
9249.0,0.47
9251.0,0.51
9252.0,0.64
9254.0,0.85
9256.0,0.99
9258.0,1.33
9260.0,1.38
9262.0,1.48
9264.0,1.09
9266.0,1.06
9268.0,0.81
9270.0,0.63
9272.0,0.7
9274.0,0.98
9276.0,1.2
9278.0,1.37
9280.0,1.19
9282.0,1.17
9284.0,1.09
9287.0,0.95
9289.0,0.91
9291.0,1.05
9293.0,1.19
9294.0,1.31
9296.0,1.41
9298.0,1.7
9300.0,1.65
9302.0,1.58
9304.0,1.36
9306.0,1.43
9308.0,1.45
9310.0,1.46
9312.0,1.5
9314.0,1.56
9316.0,1.61
9318.0,1.82
9320.0,1.79
9322.0,1.76
9324.0,1.53
9326.0,1.42
9329.0,1.79
9331.0,2.05
9333.0,2.12
9335.0,2.21
9337.0,2.23
9339.0,2.32
9340.0,2.25
9342.0,2.1
9344.0,1.8
9346.0,1.55
9348.0,1.39
9350.0,1.26
9352.0,1.29
9354.0,1.48
9356.0,1.65
9358.0,1.67
9360.0,1.6
9362.0,1.42
9364.0,1.15
9366.0,0.94
9368.0,0.9
9370.0,0.8
9373.0,0.89
9375.0,1.02
9377.0,1.25
9379.0,1.3
9381.0,1.24
9383.0,1.15
9384.0,0.88
9386.0,0.8
9388.0,0.82
9390.0,0.88
9392.0,1.09
9394.0,1.12
9396.0,1.19
9398.0,1.23
9400.0,1.2
9402.0,1.06
9404.0,0.95
9406.0,1.01
9408.0,1.17
9410.0,1.12
9412.0,1.21
9415.0,1.26
9417.0,1.18
9419.0,1.31
9421.0,1.39
9423.0,1.47
9425.0,1.5
9426.0,1.48
9428.0,1.42
9430.0,1.33
9432.0,1.33
9434.0,1.5
9436.0,1.55
9438.0,1.65
9440.0,1.65
9442.0,1.64
9444.0,1.35
9446.0,1.32
9448.0,1.8
9450.0,1.92
9452.0,1.96
9454.0,2.0
9457.0,2.06
9459.0,2.16
9461.0,2.07
9463.0,1.9
9465.0,1.54
9467.0,1.31
9469.0,1.2
9470.0,1.29
9472.0,1.35
9474.0,1.46
9476.0,1.51
9478.0,1.65
9480.0,1.55
9482.0,1.38
9484.0,1.07
9486.0,1.05
9488.0,1.05
9490.0,0.86
9492.0,0.56
9494.0,0.53
9496.0,0.55
9498.0,0.63
9501.0,0.65
9503.0,0.69
9505.0,0.64
9507.0,0.65
9509.0,0.55
9511.0,0.65
9513.0,0.71
9514.0,0.59
9516.0,0.43
9518.0,0.41
9520.0,0.44
9522.0,0.39
9524.0,0.35
9526.0,0.41
9528.0,0.53
9530.0,0.57
9532.0,0.66
9534.0,0.95
9536.0,1.11
9538.0,1.27
9540.0,1.29
9543.0,1.41
9545.0,1.45
9547.0,1.45
9549.0,1.49
9551.0,1.29
9553.0,1.37
9555.0,1.5
9557.0,1.7
9558.0,1.88
9560.0,1.87
9562.0,1.76
9564.0,1.44
9566.0,1.38
9568.0,1.21
9570.0,1.32
9572.0,1.35
9574.0,1.3
9576.0,1.39
9578.0,1.72
9580.0,1.57
9582.0,1.54
9585.0,1.48
9587.0,1.34
9589.0,1.49
9591.0,1.61
9593.0,1.69
9595.0,1.82
9597.0,1.97
9599.0,1.9
9600.0,1.77
9602.0,1.74
9604.0,1.63
9606.0,1.6
9608.0,1.73
9610.0,1.81
9612.0,1.87
9614.0,1.96
9616.0,1.88
9618.0,2.0
9620.0,1.91
9622.0,1.84
9624.0,1.55
9626.0,1.65
9629.0,1.77
9631.0,1.75
9633.0,1.62
9635.0,1.81
9637.0,2.14
9639.0,2.31
9641.0,2.24
9643.0,2.33
9644.0,2.0
9646.0,1.84
9648.0,1.58
9650.0,1.5
9652.0,1.77
9654.0,2.01
9656.0,2.11
9658.0,2.28
9660.0,2.31
9662.0,2.31
9664.0,2.08
9666.0,1.79
9668.0,1.69
9671.0,1.67
9673.0,1.81
9675.0,2.0
9677.0,2.18
9679.0,2.33
9681.0,3.12
9683.0,2.76
9685.0,2.29
9687.0,2.35
9688.0,2.16
9690.0,2.16
9692.0,2.08
9694.0,1.96
9696.0,1.98
9698.0,1.98
9700.0,1.82
9702.0,1.74
9704.0,1.59
9706.0,1.53
9708.0,1.42
9710.0,1.42
9713.0,1.5
9715.0,1.43
9717.0,1.43
9719.0,1.51
9721.0,1.38
9723.0,1.25
9725.0,1.18
9727.0,1.18
9729.0,1.28
9731.0,1.18
9732.0,1.14
9734.0,1.31
9736.0,1.47
9738.0,1.49
9740.0,1.47
9742.0,1.72
9744.0,1.45
9746.0,1.23
9748.0,0.96
9750.0,0.79
9752.0,0.89
9754.0,1.03
9757.0,1.23
9759.0,1.37
9761.0,1.34
9763.0,1.16
9765.0,1.0
9767.0,1.11
9769.0,1.01
9771.0,0.94
9773.0,1.38
9775.0,1.44
9776.0,1.51
9778.0,1.63
9780.0,1.51
9782.0,1.45
9784.0,1.36
9786.0,1.36
9788.0,1.29
9790.0,1.4
9792.0,1.43
9794.0,1.56
9796.0,1.64
9799.0,1.64
9801.0,1.49
9803.0,1.26
9805.0,1.05
9807.0,1.01
9809.0,1.1
9811.0,1.26
9813.0,1.81
9815.0,1.96
9817.0,2.08
9818.0,2.15
9820.0,2.08
9822.0,2.02
9824.0,1.84
9826.0,1.8
9828.0,1.57
9830.0,1.53
9832.0,1.71
9834.0,1.84
9836.0,1.9
9838.0,2.08
9841.0,1.94
9843.0,1.79
9845.0,1.54
9847.0,1.45
9849.0,1.39
9851.0,1.67
9853.0,1.85
9855.0,1.96
9857.0,1.91
9859.0,1.83
9861.0,1.54
9862.0,1.36
9864.0,0.97
9866.0,0.78
9868.0,0.71
9870.0,0.79
9872.0,0.94
9874.0,1.2
9876.0,1.27
9878.0,1.39
9880.0,1.43
9882.0,1.28
9885.0,1.05
9887.0,0.96
9889.0,0.95
9891.0,0.96
9893.0,1.19
9895.0,1.15
9897.0,1.33
9899.0,1.17
9901.0,1.14
9903.0,1.18
9905.0,1.11
9906.0,0.89
9908.0,0.9
9910.0,0.95
9912.0,1.19
9914.0,1.21
9916.0,1.24
9918.0,1.37
9920.0,1.19
9922.0,1.11
9924.0,0.68
9927.0,0.89
9929.0,0.97
9931.0,0.92
9933.0,0.99
9935.0,0.89
9937.0,1.52
9939.0,1.56
9941.0,1.6
9943.0,0.97
9945.0,0.46
9947.0,1.05
9949.0,0.92
9950.0,0.67
9952.0,0.87
9954.0,0.85
9956.0,1.03
9958.0,0.41
9960.0,0.0
9962.0,0.0
9964.0,0.0
9966.0,0.0
9969.0,0.0
9971.0,0.0
9973.0,0.0
9975.0,0.0
9977.0,0.0
9979.0,0.0
9981.0,0.0
9983.0,0.0
9985.0,0.0
9987.0,0.0
9989.0,0.0
9991.0,0.0
9993.0,0.0
9994.0,0.0
9996.0,0.0
9998.0,0.0
10000.0,0.0
10002.0,0.0
10004.0,0.0
10006.0,0.0
10008.0,0.0
10010.0,0.0
10013.0,0.0
10015.0,0.0
10017.0,0.0
10019.0,0.0
10021.0,1.86
10023.0,3.3
10025.0,3.3
10027.0,3.3
10029.0,3.3
10031.0,3.05
10033.0,2.63
10035.0,2.15
10036.0,1.16
10038.0,0.0
10040.0,0.0
10042.0,0.0
10044.0,0.0
10046.0,0.0
10048.0,0.0
10050.0,0.0
10052.0,0.0
10055.0,0.0
10057.0,0.0
10059.0,0.0
10061.0,0.0
10063.0,0.0
10065.0,0.0
10067.0,0.0
10069.0,0.0
10071.0,0.0
10073.0,0.0
10075.0,0.0
10077.0,0.0
10078.0,0.0
10080.0,0.0
10082.0,0.0
10084.0,0.0
10086.0,0.0
10088.0,0.0
10090.0,0.0
10092.0,0.0
10094.0,0.0
10097.0,0.0
10099.0,0.0
10101.0,0.0
10103.0,0.0
10105.0,0.0
10107.0,0.0
10109.0,0.0
10111.0,0.0
10113.0,0.0
10115.0,0.0
10117.0,0.0
10119.0,0.0
10121.0,0.0
10122.0,0.0
10124.0,0.0
10126.0,0.0
10128.0,0.0
10130.0,0.0
10132.0,0.0
10134.0,0.0
10136.0,0.0
10138.0,0.0
10141.0,0.25
10143.0,0.47
10145.0,0.52
10147.0,0.78
10149.0,0.97
10151.0,1.2
10153.0,1.58
10155.0,2.03
10157.0,2.27
10159.0,2.56
10161.0,3.03
10163.0,3.04
10164.0,3.01
10166.0,3.22
10168.0,3.3
10170.0,3.3
10172.0,3.3
10174.0,3.3
10176.0,3.3
10178.0,3.3
10180.0,3.3
10183.0,3.3
10185.0,3.3
10187.0,3.3
10189.0,3.3
10191.0,3.3
10193.0,3.3
10195.0,3.3
10197.0,3.3
10199.0,3.3
10201.0,3.3
10203.0,3.28
10205.0,2.92
10206.0,2.78
10208.0,2.54
10210.0,2.48
10212.0,2.43
10214.0,2.26
10216.0,2.08
10218.0,2.19
10220.0,1.95
10222.0,1.68
10225.0,1.48
10227.0,1.46
10229.0,1.6
10231.0,1.15
10233.0,1.17
10235.0,1.28
10237.0,1.11
10239.0,0.82
10241.0,0.3
10243.0,0.0
10245.0,0.0
10247.0,0.0
10249.0,0.0
10250.0,0.0
10252.0,0.0
10254.0,0.0
10256.0,0.0
10258.0,0.0
10260.0,0.0
10262.0,0.0
10264.0,0.0
10266.0,0.0
10269.0,0.0
10271.0,0.0
10273.0,0.0
10275.0,0.0
10277.0,0.0
10279.0,0.0
10281.0,0.0
10283.0,0.0
10285.0,0.0
10287.0,0.0
10289.0,0.0
10291.0,0.0
10292.0,0.0
10294.0,0.0
10296.0,0.0
10298.0,0.0
10300.0,0.0
10302.0,0.0
10304.0,0.0
10306.0,0.0
10308.0,0.0
10311.0,0.3
10313.0,0.85
10315.0,1.25
10317.0,1.64
10319.0,2.14
10321.0,3.3
10323.0,3.3
10325.0,3.3
10327.0,3.3
10329.0,3.3
10331.0,3.3
10333.0,3.3
10334.0,3.3
10336.0,3.3
10338.0,3.3
10340.0,3.3
10342.0,3.3
10344.0,3.3
10346.0,3.3
10348.0,3.3
10350.0,3.3
10353.0,3.3
10355.0,3.3
10357.0,3.3
10359.0,3.3
10361.0,3.3
10363.0,3.3
10365.0,3.3
10367.0,3.3
10369.0,3.3
10371.0,3.3
10373.0,3.3
10375.0,3.3
10377.0,3.3
10378.0,3.3
10380.0,3.3
10382.0,3.3
10384.0,3.3
10386.0,3.3
10388.0,3.3
10390.0,3.3
10392.0,3.3
10394.0,3.3
10397.0,3.3
10399.0,3.3
10401.0,3.3
10403.0,3.3
10405.0,3.3
10407.0,3.3
10409.0,3.3
10411.0,3.3
10413.0,3.3
10415.0,3.3
10417.0,3.3
10419.0,3.3
10420.0,3.3
10422.0,3.3
10424.0,3.3
10426.0,3.3
10428.0,3.3
10430.0,3.3
10432.0,3.3
10434.0,3.3
10436.0,3.3
10439.0,3.3
10441.0,3.3
10443.0,3.3
10445.0,3.3
10447.0,3.3
10449.0,3.3
10451.0,3.3
10453.0,3.3
10455.0,3.3
10457.0,3.3
10459.0,3.3
10461.0,3.3
10462.0,3.3
10464.0,3.3
10466.0,3.3
10468.0,3.29
10470.0,3.18
10472.0,3.19
10474.0,3.3
10476.0,3.3
10478.0,3.09
10481.0,2.22
10483.0,1.76
10485.0,1.41
10487.0,1.27
10489.0,1.2
10491.0,1.14
10493.0,1.24
10495.0,1.25
10497.0,1.2
10499.0,1.35
10501.0,1.36
10503.0,1.3
10505.0,1.28
10506.0,1.24
10508.0,1.4
10510.0,1.57
10512.0,1.6
10514.0,1.97
10516.0,2.48
10518.0,2.48
10520.0,2.23
10522.0,2.42
10525.0,2.42
10527.0,2.38
10529.0,2.52
10531.0,2.73
10533.0,3.07
10535.0,3.24
10537.0,3.24
10539.0,3.3
10541.0,3.3
10543.0,3.3
10545.0,3.3
10547.0,3.3
10548.0,3.3
10550.0,3.3
10552.0,3.25
10554.0,3.06
10556.0,3.03
10558.0,3.17
10560.0,2.87
10562.0,2.62
10564.0,2.07
10567.0,1.92
10569.0,1.81
10571.0,1.84
10573.0,1.88
10575.0,1.93
10577.0,1.76
10579.0,1.58
10581.0,1.36
10583.0,1.1
10585.0,1.0
10587.0,1.45
10589.0,1.64
10590.0,2.13
10592.0,2.35
10594.0,2.7
10596.0,3.0
10598.0,3.3
10600.0,3.3
10602.0,3.3
10604.0,3.3
10606.0,3.3
10609.0,3.3
10611.0,3.3
10613.0,3.3
10615.0,3.3
10617.0,3.3
10619.0,3.3
10621.0,3.3
10623.0,3.3
10625.0,3.3
10627.0,3.3
10629.0,3.3
10631.0,3.3
10633.0,3.3
10634.0,3.3
10636.0,3.3
10638.0,3.3
10640.0,3.3
10642.0,3.3
10644.0,3.3
10646.0,3.3
10648.0,3.3
10650.0,3.3
10653.0,3.3
10655.0,3.3
10657.0,3.3
10659.0,3.3
10661.0,3.3
10663.0,3.3
10665.0,3.3
10667.0,3.3
10669.0,3.3
10671.0,3.3
10673.0,3.3
10675.0,3.3
10676.0,3.3
10678.0,3.3
10680.0,3.3
10682.0,3.3
10684.0,3.3
10686.0,3.3
10688.0,3.3
10690.0,3.3
10692.0,3.3
10695.0,3.3
10697.0,3.3
10699.0,3.3
10701.0,3.3
10703.0,3.3
10705.0,3.3
10707.0,3.3
10709.0,3.3
10711.0,3.3
10713.0,3.3
10715.0,3.3
10717.0,3.3
10718.0,3.16
10720.0,2.88
10722.0,2.49
10724.0,2.32
10726.0,2.27
10728.0,1.98
10730.0,2.04
10732.0,2.22
10734.0,2.32
10737.0,2.56
10739.0,2.48
10741.0,3.22
10743.0,3.3
10745.0,3.3
10747.0,3.29
10749.0,3.15
10751.0,3.04
10753.0,2.89
10755.0,2.83
10757.0,2.9
10759.0,2.85
10761.0,2.54
10762.0,2.04
10764.0,1.64
10766.0,1.39
10768.0,0.59
10770.0,0.35
10772.0,0.51
10774.0,0.52
10776.0,0.53
10778.0,0.58
10781.0,0.45
10783.0,0.19
10785.0,0.0
10787.0,0.16
10789.0,0.49
10791.0,1.15
10793.0,1.59
10795.0,2.28
10797.0,2.7
10799.0,2.76
10801.0,2.57
10803.0,2.24
10804.0,1.99
10806.0,1.92
10808.0,1.98
10810.0,2.09
10812.0,1.92
10814.0,1.71
10816.0,1.58
10818.0,1.43
10820.0,1.17
10823.0,0.94
10825.0,0.71
10827.0,0.44
10829.0,0.2
10831.0,0.22
10833.0,0.16
10835.0,0.15
10837.0,0.27
10839.0,0.22
10841.0,0.15
10843.0,0.0
10845.0,0.0
10846.0,0.0
10848.0,0.0
10850.0,0.0
10852.0,0.26
10854.0,0.57
10856.0,0.67
10858.0,0.73
10860.0,0.54
10862.0,0.31
10865.0,0.26
10867.0,0.33
10869.0,0.35
10871.0,0.46
10873.0,0.61
10875.0,0.69
10877.0,0.71
10879.0,0.64
10881.0,0.27
10883.0,0.01
10885.0,0.08
10887.0,0.06
10889.0,0.14
10890.0,0.21
10892.0,0.23
10894.0,0.28
10896.0,0.3
10898.0,0.38
10900.0,0.35
10902.0,0.1
10904.0,0.07
10906.0,0.28
10909.0,0.31
10911.0,0.33
10913.0,0.41
10915.0,0.53
10917.0,0.4
10919.0,0.11
10921.0,0.0
10923.0,0.0
10925.0,0.0
10927.0,0.0
10929.0,0.0
10931.0,0.0
10932.0,0.0
10934.0,0.04
10936.0,0.44
10938.0,0.59
10940.0,0.56
10942.0,0.38
10944.0,0.22
10946.0,0.1
10948.0,0.0
10951.0,0.1
10953.0,0.38
10955.0,0.44
10957.0,0.69
10959.0,0.63
10961.0,0.38
10963.0,0.17
10965.0,0.08
10967.0,0.03
10969.0,0.09
10971.0,0.18
10973.0,0.3
10975.0,0.53
10976.0,0.54
10978.0,0.38
10980.0,0.25
10982.0,0.07
10984.0,0.0
10986.0,0.02
10988.0,0.22
10990.0,0.3
10993.0,0.24
10995.0,0.32
10997.0,0.35
10999.0,0.52
11001.0,0.26
11003.0,0.24
11005.0,0.26
11007.0,0.09
11009.0,0.12
11011.0,0.13
11013.0,0.1
11015.0,0.24
11017.0,0.5
11018.0,0.13
11020.0,0.0
11022.0,0.0
11024.0,0.0
11026.0,0.0
11028.0,0.0
11030.0,0.0
11032.0,0.25
11034.0,0.19
11037.0,0.43
11039.0,0.48
11041.0,0.59
11043.0,0.42
11045.0,0.17
11047.0,0.06
11049.0,0.22
11051.0,0.21
11053.0,0.0
11055.0,0.0
11057.0,0.01
11059.0,0.0
11060.0,0.0
11062.0,0.0
11064.0,0.0
11066.0,0.0
11068.0,0.0
11070.0,0.0
11072.0,0.0
11074.0,0.0
11076.0,0.0
11079.0,0.0
11081.0,0.0
11083.0,0.0
11085.0,0.0
11087.0,0.0
11089.0,0.0
11091.0,0.0
11093.0,0.0
11095.0,0.0
11097.0,0.0
11099.0,0.0
11101.0,0.0
11103.0,0.0
11104.0,0.0
11106.0,0.0
11108.0,0.0
11110.0,0.0
11112.0,0.0
11114.0,0.0
11116.0,0.0
11118.0,0.0
11121.0,0.0
11123.0,0.0
11125.0,0.0
11127.0,0.0
11129.0,0.0
11131.0,0.0
11133.0,0.0
11135.0,0.0
11137.0,0.0
11139.0,0.0
11141.0,0.0
11143.0,0.0
11145.0,0.0
11146.0,0.0
11148.0,0.0
11150.0,0.0
11152.0,0.0
11154.0,0.0
11156.0,0.0
11158.0,0.0
11160.0,0.0
11162.0,0.0
11165.0,0.0
11167.0,0.0
11169.0,0.0
11171.0,0.0
11173.0,0.0
11175.0,0.0
11177.0,0.0
11179.0,0.0
11181.0,0.0
11183.0,0.0
11185.0,0.0
11187.0,0.0
11188.0,0.0
11190.0,0.0
11192.0,0.0
11194.0,0.0
11196.0,0.0
11198.0,0.0
11200.0,0.0
11202.0,0.0
11204.0,0.0
11207.0,0.0
11209.0,0.0
11211.0,0.0
11213.0,0.0
11215.0,0.0
11217.0,0.0
11219.0,0.0
11221.0,0.0
11223.0,0.0
11225.0,0.0
11227.0,0.0
11229.0,0.0
11231.0,0.0
11232.0,0.0
11234.0,0.2
11236.0,0.34
11238.0,0.54
11240.0,0.52
11242.0,0.41
11244.0,0.45
11246.0,0.5
11249.0,0.47
11251.0,0.63
11253.0,0.77
11255.0,0.89
11257.0,0.98
11259.0,1.0
11261.0,0.96
11263.0,0.59
11265.0,0.66
11267.0,0.61
11269.0,0.7
11271.0,0.95
11273.0,1.12
11274.0,1.09
11276.0,1.24
11278.0,1.39
11280.0,1.52
11282.0,1.39
11284.0,1.18
11286.0,1.43
11288.0,1.63
11290.0,1.87
11293.0,2.03
11295.0,2.06
11297.0,2.17
11299.0,2.29
11301.0,2.21
11303.0,2.14
11305.0,2.08
11307.0,2.05
11309.0,2.24
11311.0,3.3
11313.0,3.3
11315.0,3.3
11316.0,3.3
11318.0,3.3
11320.0,3.3
11322.0,3.3
11324.0,3.3
11326.0,3.3
11328.0,3.3
11330.0,3.3
11332.0,3.3
11335.0,3.3
11337.0,3.3
11339.0,3.3
11341.0,3.3
11343.0,3.3
11345.0,3.3
11347.0,3.3
11349.0,3.3
11351.0,3.3
11353.0,3.3
11355.0,3.3
11357.0,3.3
11359.0,3.3
11360.0,3.3
11362.0,3.3
11364.0,3.29
11366.0,3.3
11368.0,3.17
11370.0,3.26
11372.0,3.3
11374.0,3.3
11377.0,3.3
11379.0,3.1
11381.0,2.86
11383.0,2.62
11385.0,2.83
11387.0,2.73
11389.0,2.77
11391.0,2.7
11393.0,2.72
11395.0,2.94
11397.0,2.98
11399.0,3.0
11401.0,3.23
11402.0,3.25
11404.0,3.3
11406.0,3.3
11408.0,3.3
11410.0,3.3
11412.0,3.3
11414.0,3.3
11416.0,3.3
11418.0,3.3
11421.0,3.3
11423.0,3.3
11425.0,3.3
11427.0,3.3
11429.0,3.3
11431.0,3.3
11433.0,3.3
11435.0,3.3
11437.0,3.3
11439.0,3.3
11441.0,3.3
11443.0,3.3
11444.0,3.3
11446.0,3.3
11448.0,3.3
11450.0,3.3
11452.0,3.3
11454.0,3.3
11456.0,3.3
11458.0,3.3
11460.0,3.3
11463.0,3.3
11465.0,3.3
11467.0,3.3
11469.0,3.3
11471.0,3.26
11473.0,3.28
11475.0,3.3
11477.0,3.25
11479.0,2.94
11481.0,2.86
11483.0,2.92
11485.0,3.01
11487.0,3.04
11488.0,3.1
11490.0,3.05
11492.0,2.91
11494.0,2.91
11496.0,2.85
11498.0,2.78
11500.0,2.72
11502.0,2.5
11505.0,2.48
11507.0,2.37
11509.0,2.27
11511.0,2.45
11513.0,2.2
11515.0,1.9
11517.0,1.82
11519.0,1.88
11521.0,1.52
11523.0,1.14
11525.0,1.06
11527.0,1.05
11529.0,0.85
11530.0,0.98
11532.0,1.19
11534.0,1.26
11536.0,1.32
11538.0,1.1
11540.0,1.0
11542.0,0.8
11544.0,0.96
11546.0,0.84
11549.0,1.02
11551.0,1.31
11553.0,1.39
11555.0,1.47
11557.0,1.72
11559.0,1.68
11561.0,1.56
11563.0,1.29
11565.0,1.25
11567.0,1.19
11569.0,1.3
11571.0,1.56
11572.0,1.57
11574.0,1.55
11576.0,1.55
11578.0,1.34
11580.0,1.36
11582.0,1.2
11584.0,1.08
11586.0,1.1
11588.0,1.17
11591.0,1.22
11593.0,1.25
11595.0,1.63
11597.0,1.54
11599.0,1.47
11601.0,1.45
11603.0,1.13
11605.0,1.1
11607.0,1.3
11609.0,1.25
11611.0,1.38
11613.0,1.39
11615.0,1.57
11616.0,1.82
11618.0,1.78
11620.0,1.7
11622.0,1.59
11624.0,1.65
11626.0,1.6
11628.0,1.63
11630.0,1.83
11633.0,2.04
11635.0,2.12
11637.0,2.06
11639.0,1.96
11641.0,1.94
11643.0,1.71
11645.0,1.35
11647.0,1.05
11649.0,1.07
11651.0,1.09
11653.0,1.25
11655.0,1.43
11657.0,1.66
11658.0,1.69
11660.0,1.44
11662.0,1.09
11664.0,1.12
11666.0,1.03
11668.0,1.05
11670.0,1.08
11672.0,1.28
11674.0,1.45
11677.0,1.46
11679.0,1.3
11681.0,1.18
11683.0,1.1
11685.0,1.15
11687.0,1.14
11689.0,1.4
11691.0,1.38
11693.0,1.31
11695.0,1.22
11697.0,1.16
11699.0,1.19
11700.0,0.97
11702.0,0.82
11704.0,1.02
11706.0,0.93
11708.0,1.12
11710.0,1.08
11712.0,1.24
11714.0,1.38
11716.0,1.42
11719.0,1.32
11721.0,1.27
11723.0,1.1
11725.0,1.12
11727.0,1.0
11729.0,1.01
11731.0,0.93
11733.0,1.02
11735.0,1.2
11737.0,1.1
11739.0,0.88
11741.0,0.85
11743.0,0.63
11744.0,0.73
11746.0,0.82
11748.0,0.91
11750.0,0.89
11752.0,0.8
11754.0,0.88
11756.0,1.03
11758.0,1.1
11761.0,1.02
11763.0,0.76
11765.0,0.83
11767.0,0.89
11769.0,1.29
11771.0,1.29
11773.0,1.47
11775.0,1.61
11777.0,1.76
11779.0,1.68
11781.0,1.33
11783.0,1.17
11785.0,1.05
11786.0,1.05
11788.0,1.2
11790.0,1.18
11792.0,1.08
11794.0,1.17
11796.0,1.06
11798.0,1.05
11800.0,0.77
11802.0,0.6
11805.0,0.74
11807.0,0.94
11809.0,0.86
11811.0,1.01
11813.0,1.06
11815.0,1.13
11817.0,1.06
11819.0,1.02
11821.0,0.98
11823.0,1.0
11825.0,0.96
11827.0,1.05
11828.0,0.83
11830.0,0.92
11832.0,1.09
11834.0,1.23
11836.0,1.22
11838.0,1.23
11840.0,1.13
11842.0,0.88
11844.0,0.95
11847.0,0.82
11849.0,0.78
11851.0,0.9
11853.0,1.2
11855.0,1.63
11857.0,1.82
11859.0,1.75
11861.0,1.58
11863.0,1.3
11865.0,1.25
11867.0,1.21
11869.0,1.21
11871.0,1.35
11872.0,1.44
11874.0,1.65
11876.0,1.64
11878.0,1.39
11880.0,1.14
11882.0,0.98
11884.0,1.0
11886.0,1.01
11889.0,1.22
11891.0,1.36
11893.0,1.38
11895.0,1.89
11897.0,2.13
11899.0,1.77
11901.0,1.75
11903.0,1.56
11905.0,1.53
11907.0,1.4
11909.0,1.32
11911.0,1.31
11913.0,1.37
11914.0,1.55
11916.0,1.7
11918.0,1.66
11920.0,1.61
11922.0,1.21
11924.0,1.18
11926.0,1.29
11928.0,1.41
11930.0,1.49
11933.0,1.69
11935.0,1.65
11937.0,1.47
11939.0,1.28
11941.0,1.16
11943.0,1.08
11945.0,0.95
11947.0,0.97
11949.0,0.92
11951.0,1.04
11953.0,1.5
11955.0,1.85
11956.0,1.97
11958.0,1.6
11960.0,1.39
11962.0,1.05
11964.0,1.01
11966.0,0.86
11968.0,1.02
11970.0,1.25
11972.0,1.5
11975.0,1.79
11977.0,1.32
11979.0,1.36
11981.0,1.45
11983.0,0.97
11985.0,0.89
11987.0,0.88
11989.0,0.97
11991.0,1.18
11993.0,1.42
11995.0,1.49
11997.0,1.43
11999.0,1.08
12000.0,1.1
12002.0,0.69
12004.0,0.61
12006.0,1.01
12008.0,1.08
12010.0,1.42
12012.0,1.54
12014.0,1.77
12017.0,1.8
12019.0,1.76
12021.0,1.55
12023.0,1.37
12025.0,1.27
12027.0,1.18
12029.0,1.36
12031.0,1.33
12033.0,1.27
12035.0,1.64
12037.0,1.58
12039.0,1.53
12041.0,1.31
12042.0,1.08
12044.0,0.8
12046.0,0.76
12048.0,0.87
12050.0,0.97
12052.0,0.97
12054.0,1.12
12056.0,1.13
12058.0,1.11
12061.0,1.05
12063.0,0.64
12065.0,0.69
12067.0,0.92
12069.0,0.86
12071.0,0.8
12073.0,0.88
12075.0,0.85
12077.0,1.01
12079.0,0.76
12081.0,0.42
12083.0,0.01
12084.0,0.03
12086.0,0.0
12088.0,0.0
12090.0,0.0
12092.0,0.21
12094.0,0.33
12096.0,0.32
12098.0,0.25
12100.0,0.11
12103.0,0.0
12105.0,0.09
12107.0,0.07
12109.0,0.16
12111.0,0.32
12113.0,0.53
12115.0,0.51
12117.0,0.11
12119.0,0.21
12121.0,0.26
12123.0,0.08
12125.0,0.4
12127.0,0.43
12128.0,0.3
12130.0,0.23
12132.0,0.19
12134.0,0.43
12136.0,0.5
12138.0,0.63
12140.0,0.42
12142.0,0.35
12145.0,0.26
12147.0,0.29
12149.0,0.24
12151.0,0.36
12153.0,0.71
12155.0,0.83
12157.0,1.07
12159.0,1.2
12161.0,1.4
12163.0,1.45
12165.0,1.33
12167.0,1.29
12169.0,1.23
12170.0,1.43
12172.0,1.46
12174.0,1.88
12176.0,1.83
12178.0,1.7
12180.0,1.32
12182.0,1.36
12184.0,1.61
12186.0,1.93
12189.0,1.83
12191.0,2.01
12193.0,2.04
12195.0,2.06
12197.0,1.89
12199.0,1.94
12201.0,1.59
12203.0,1.51
12205.0,1.64
12207.0,1.55
12209.0,1.49
12211.0,1.45
12212.0,1.34
12214.0,1.45
12216.0,1.26
12218.0,1.1
12220.0,1.6
12222.0,1.54
12224.0,1.44
12226.0,1.39
12228.0,1.16
12231.0,0.94
12233.0,0.97
12235.0,0.95
12237.0,0.91
12239.0,0.99
12241.0,0.92
12243.0,0.42
12245.0,0.36
12247.0,0.46
12249.0,0.51
12251.0,0.87
12253.0,1.35
12255.0,1.43
12256.0,1.39
12258.0,1.14
12260.0,1.03
12262.0,1.18
12264.0,1.25
12266.0,1.23
12268.0,1.47
12270.0,2.0
12273.0,1.98
12275.0,1.91
12277.0,1.82
12279.0,1.2
12281.0,1.19
12283.0,1.18
12285.0,1.15
12287.0,1.19
12289.0,0.93
12291.0,0.93
12293.0,0.92
12295.0,1.03
12297.0,1.2
12298.0,1.4
12300.0,1.29
12302.0,1.36
12304.0,1.6
12306.0,1.66
12308.0,1.77
12310.0,2.06
12312.0,2.02
12314.0,1.84
12317.0,1.87
12319.0,2.07
12321.0,2.28
12323.0,2.2
12325.0,2.16
12327.0,2.1
12329.0,1.86
12331.0,1.93
12333.0,1.89
12335.0,2.02
12337.0,1.99
12339.0,2.64
12340.0,3.08
12342.0,3.16
12344.0,3.16
12346.0,2.69
12348.0,2.36
12350.0,2.01
12352.0,1.78
12354.0,1.87
12356.0,1.8
12359.0,1.67
12361.0,1.33
12363.0,1.46
12365.0,1.19
12367.0,1.39
12369.0,1.34
12371.0,1.42
12373.0,1.49
12375.0,1.67
12377.0,1.63
12379.0,1.56
12381.0,1.79
12383.0,2.12
12384.0,2.75
12386.0,2.59
12388.0,2.84
12390.0,3.3
12392.0,3.3
12394.0,3.3
12396.0,3.3
12398.0,3.3
12401.0,3.29
12403.0,3.3
12405.0,3.3
12407.0,3.3
12409.0,3.3
12411.0,3.3
12413.0,3.3
12415.0,3.3
12417.0,3.3
12419.0,3.3
12421.0,3.3
12423.0,3.3
12425.0,3.3
12426.0,3.28
12428.0,3.19
12430.0,3.23
12432.0,3.18
12434.0,3.13
12436.0,3.09
12438.0,2.8
12440.0,2.45
12442.0,2.18
12445.0,2.05
12447.0,1.91
12449.0,1.84
12451.0,2.08
12453.0,2.45
12455.0,2.63
12457.0,2.76
12459.0,2.71
12461.0,2.45
12463.0,2.33
12465.0,2.24
12467.0,2.11
12468.0,2.21
12470.0,2.28
12472.0,2.39
12474.0,2.42
12476.0,2.33
12478.0,2.18
12480.0,1.94
12482.0,1.85
12484.0,1.83
12487.0,1.83
12489.0,1.91
12491.0,1.93
12493.0,2.17
12495.0,2.16
12497.0,1.93
12499.0,1.76
12501.0,1.53
12503.0,1.34
12505.0,1.39
12507.0,1.36
12509.0,1.46
12511.0,1.43
12512.0,1.37
12514.0,1.53
12516.0,1.36
12518.0,1.32
12520.0,1.11
12522.0,1.14
12524.0,0.97
12526.0,1.17
12529.0,1.22
12531.0,1.39
12533.0,1.75
12535.0,2.02
12537.0,2.03
12539.0,2.16
12541.0,1.9
12543.0,1.56
12545.0,1.48
12547.0,1.5
12549.0,1.67
12551.0,1.85
12553.0,1.88
12554.0,2.09
12556.0,2.07
12558.0,1.87
12560.0,1.72
12562.0,1.74
12564.0,1.76
12566.0,1.9
12568.0,1.76
12570.0,1.95
12573.0,2.16
12575.0,2.39
12577.0,2.38
12579.0,2.26
12581.0,2.02
12583.0,2.04
12585.0,1.96
12587.0,1.85
12589.0,1.96
12591.0,2.39
12593.0,2.57
12595.0,2.65
12596.0,2.37
12598.0,2.16
12600.0,1.92
12602.0,1.64
12604.0,1.63
12606.0,1.53
12608.0,1.59
12610.0,1.66
12612.0,1.54
12615.0,1.47
12617.0,1.41
12619.0,1.31
12621.0,1.12
12623.0,1.1
12625.0,0.96
12627.0,0.82
12629.0,0.8
12631.0,0.9
12633.0,1.11
12635.0,1.34
12637.0,1.4
12639.0,1.54
12640.0,1.33
12642.0,1.24
12644.0,1.1
12646.0,0.96
12648.0,1.1
12650.0,1.23
12652.0,1.39
12654.0,1.56
12657.0,1.4
12659.0,1.08
12661.0,0.79
12663.0,0.62
12665.0,0.59
12667.0,0.61
12669.0,0.76
12671.0,0.93
12673.0,1.06
12675.0,1.18
12677.0,1.16
12679.0,1.04
12681.0,0.82
12682.0,0.83
12684.0,0.89
12686.0,1.01
12688.0,1.03
12690.0,1.27
12692.0,1.36
12694.0,1.44
12696.0,1.31
12698.0,1.31
12701.0,1.23
12703.0,1.2
12705.0,1.21
12707.0,1.14
12709.0,1.25
12711.0,1.24
12713.0,1.16
12715.0,1.29
12717.0,1.13
12719.0,1.14
12721.0,0.99
12723.0,0.89
12724.0,0.76
12726.0,0.74
12728.0,0.78
12730.0,0.99
12732.0,0.98
12734.0,1.15
12736.0,1.23
12738.0,1.25
12740.0,0.91
12743.0,0.53
12745.0,0.15
12747.0,0.19
12749.0,0.29
12751.0,0.55
12753.0,0.74
12755.0,0.81
12757.0,0.92
12759.0,0.9
12761.0,0.73
12763.0,0.67
12765.0,0.72
12767.0,0.73
12768.0,0.79
12770.0,0.87
12772.0,1.04
12774.0,1.23
12776.0,1.15
12778.0,1.14
12780.0,0.95
12782.0,0.95
12785.0,1.09
12787.0,1.12
12789.0,1.25
12791.0,1.32
12793.0,1.41
12795.0,1.46
12797.0,1.42
12799.0,1.37
12801.0,1.25
12803.0,1.23
12805.0,1.27
12807.0,1.3
12809.0,1.38
12810.0,1.37
12812.0,1.35
12814.0,1.49
12816.0,1.35
12818.0,1.37
12820.0,1.12
12822.0,1.08
12824.0,1.12
12826.0,1.01
12829.0,1.09
12831.0,1.28
12833.0,1.44
12835.0,1.54
12837.0,1.45
12839.0,1.4
12841.0,1.26
12843.0,1.04
12845.0,0.91
12847.0,1.05
12849.0,1.07
12851.0,1.33
12852.0,1.5
12854.0,1.61
12856.0,1.59
12858.0,1.46
12860.0,1.21
12862.0,1.2
12864.0,1.19
12866.0,1.19
12868.0,1.53
12871.0,1.86
12873.0,2.04
12875.0,2.28
12877.0,2.02
12879.0,1.95
12881.0,1.8
12883.0,1.53
12885.0,1.63
12887.0,1.65
12889.0,1.74
12891.0,1.83
12893.0,1.71
12895.0,1.81
12896.0,1.71
12898.0,1.6
12900.0,1.32
12902.0,1.36
12904.0,1.29
12906.0,1.4
12908.0,1.51
12910.0,1.56
12913.0,1.46
12915.0,1.65
12917.0,1.61
12919.0,1.5
12921.0,1.29
12923.0,1.52
12925.0,1.14
12927.0,1.43
12929.0,1.49
12931.0,1.61
12933.0,1.55
12935.0,1.65
12937.0,1.88
12938.0,1.77
12940.0,1.51
12942.0,1.56
12944.0,1.57
12946.0,1.57
12948.0,1.56
12950.0,1.74
12952.0,1.86
12954.0,1.94
12957.0,1.88
12959.0,1.85
12961.0,1.49
12963.0,1.31
12965.0,1.33
12967.0,1.37
12969.0,1.29
12971.0,1.36
12973.0,1.69
12975.0,1.69
12977.0,1.71
12979.0,1.66
12980.0,1.46
12982.0,1.43
12984.0,1.53
12986.0,1.46
12988.0,1.57
12990.0,1.57
12992.0,1.89
12994.0,1.69
12996.0,1.53
12999.0,1.31
13001.0,1.33
13003.0,1.47
13005.0,1.5
13007.0,1.41
13009.0,1.46
13011.0,1.52
13013.0,1.32
13015.0,1.29
13017.0,1.19
13019.0,1.14
13021.0,0.95
13023.0,0.78
13024.0,0.63
13026.0,0.54
13028.0,0.69
13030.0,0.76
13032.0,0.73
13034.0,1.06
13036.0,1.25
13038.0,1.07
13041.0,0.69
13043.0,0.77
13045.0,0.75
13047.0,0.48
13049.0,0.45
13051.0,0.4
13053.0,0.34
13055.0,0.65
13057.0,0.67
13059.0,0.43
13061.0,0.14
13063.0,0.01
13065.0,0.0
13066.0,0.0
13068.0,0.0
13070.0,0.0
13072.0,0.0
13074.0,0.0
13076.0,0.0
13078.0,0.0
13080.0,0.0
13082.0,0.0
13085.0,0.0
13087.0,0.0
13089.0,0.0
13091.0,0.0
13093.0,0.0
13095.0,0.0
13097.0,0.0
13099.0,0.0
13101.0,0.0
13103.0,0.0
13105.0,0.0
13107.0,0.0
13108.0,0.0
13110.0,0.0
13112.0,0.0
13114.0,0.0
13116.0,0.0
13118.0,0.0
13120.0,0.0
13122.0,0.0
13124.0,0.0
13127.0,0.0
13129.0,0.0
13131.0,0.0
13133.0,0.0
13135.0,0.0
13137.0,0.0
13139.0,0.0
13141.0,0.0
13143.0,0.0
13145.0,0.0
13147.0,0.0
13149.0,0.0
13151.0,0.0
13152.0,0.0
13154.0,0.0
13156.0,0.0
13158.0,0.0
13160.0,0.0
13162.0,0.0
13164.0,0.0
13166.0,0.0
13169.0,0.0
13171.0,0.0
13173.0,0.0
13175.0,0.0
13177.0,0.0
13179.0,0.0
13181.0,0.0
13183.0,0.0
13185.0,0.0
13187.0,0.0
13189.0,0.0
13191.0,0.0
13193.0,0.0
13194.0,0.0
13196.0,0.0
13198.0,0.0
13200.0,0.0
13202.0,0.0
13204.0,0.0
13206.0,0.0
13208.0,0.0
13210.0,0.0
13213.0,0.0
13215.0,0.0
13217.0,0.0
13219.0,0.0
13221.0,0.0
13223.0,0.0
13225.0,0.0
13227.0,0.0
13229.0,0.0
13231.0,0.0
13233.0,0.0
13235.0,0.0
13237.0,0.0
13238.0,0.0
13240.0,0.0
13242.0,0.0
13244.0,0.01
13246.0,0.21
13248.0,0.4
13250.0,0.83
13252.0,1.0
13255.0,1.19
13257.0,1.44
13259.0,1.45
13261.0,1.15
13263.0,1.07
13265.0,1.4
13267.0,1.57
13269.0,1.61
13271.0,1.84
13273.0,2.06
13275.0,2.13
13277.0,1.95
13279.0,2.0
13280.0,2.03
13282.0,2.03
13284.0,2.07
13286.0,2.2
13288.0,2.35
13290.0,2.39
13292.0,2.44
13294.0,2.71
13297.0,2.71
13299.0,2.61
13301.0,2.32
13303.0,2.33
13305.0,2.4
13307.0,2.52
13309.0,2.57
13311.0,2.71
13313.0,2.79
13315.0,3.0
13317.0,3.0
13319.0,2.86
13321.0,2.79
13322.0,2.88
13324.0,3.3
13326.0,3.3
13328.0,3.3
13330.0,3.3
13332.0,3.3
13334.0,3.3
13336.0,3.3
13338.0,3.3
13341.0,3.3
13343.0,3.3
13345.0,3.3
13347.0,3.3
13349.0,3.3
13351.0,3.3
13353.0,3.3
13355.0,3.3
13357.0,3.3
13359.0,3.3
13361.0,3.3
13363.0,3.3
13365.0,3.3
13366.0,3.3
13368.0,3.3
13370.0,3.3
13372.0,3.3
13374.0,3.3
13376.0,3.3
13378.0,3.3
13380.0,3.3
13383.0,3.3
13385.0,3.3
13387.0,3.3
13389.0,3.3
13391.0,3.3
13393.0,3.3
13395.0,3.3
13397.0,3.3
13399.0,3.3
13401.0,3.3
13403.0,3.3
13405.0,3.3
13407.0,3.3
13408.0,3.3
13410.0,3.3
13412.0,3.3
13414.0,3.3
13416.0,3.3
13418.0,3.3
13420.0,3.3
13422.0,3.3
13425.0,3.3
13427.0,3.3
13429.0,3.3
13431.0,3.3
13433.0,3.3
13435.0,3.3
13437.0,3.3
13439.0,3.3
13441.0,3.3
13443.0,3.3
13445.0,3.3
13447.0,3.3
13449.0,3.3
13450.0,3.3
13452.0,3.3
13454.0,3.3
13456.0,3.3
13458.0,3.3
13460.0,3.3
13462.0,3.3
13464.0,3.3
13466.0,3.3
13469.0,3.3
13471.0,3.3
13473.0,3.3
13475.0,3.3
13477.0,3.3
13479.0,3.3
13481.0,3.3
13483.0,3.3
13485.0,3.28
13487.0,3.3
13489.0,3.3
13491.0,3.2
13493.0,3.3
13494.0,3.25
13496.0,3.1
13498.0,2.9
13500.0,2.68
13502.0,2.6
13504.0,2.55
13506.0,2.52
13508.0,2.57
13511.0,2.68
13513.0,2.83
13515.0,2.71
13517.0,2.52
13519.0,2.36
13521.0,2.42
13523.0,2.43
13525.0,2.31
13527.0,2.13
13529.0,2.28
13531.0,2.27
13533.0,2.37
13535.0,2.39
13536.0,2.39
13538.0,2.15
13540.0,1.82
13542.0,1.67
13544.0,1.48
13546.0,1.4
13548.0,1.38
13550.0,1.41
13553.0,1.57
13555.0,1.5
13557.0,1.35
13559.0,1.12
13561.0,0.82
13563.0,0.6
13565.0,0.48
13567.0,0.62
13569.0,0.63
13571.0,0.74
13573.0,0.91
13575.0,0.94
13577.0,0.63
13578.0,0.53
13580.0,0.39
13582.0,0.39
13584.0,0.35
13586.0,0.43
13588.0,0.54
13590.0,0.53
13592.0,0.57
13594.0,0.75
13597.0,0.63
13599.0,0.59
13601.0,0.38
13603.0,0.55
13605.0,0.55
13607.0,0.68
13609.0,0.84
13611.0,0.85
13613.0,0.94
13615.0,1.02
13617.0,0.92
13619.0,0.87
13621.0,0.65
13622.0,0.64
13624.0,0.65
13626.0,0.54
13628.0,0.6
13630.0,0.89
13632.0,1.22
13634.0,1.39
13636.0,1.5
13639.0,1.43
13641.0,1.27
13643.0,1.17
13645.0,1.02
13647.0,1.0
13649.0,1.14
13651.0,1.15
13653.0,1.33
13655.0,1.41
13657.0,1.41
13659.0,1.18
13661.0,0.92
13663.0,0.97
13664.0,0.88
13666.0,1.06
13668.0,1.17
13670.0,1.26
13672.0,1.44
13674.0,1.45
13676.0,1.6
13678.0,1.55
13681.0,1.33
13683.0,1.63
13685.0,1.97
13687.0,2.04
13689.0,2.08
13691.0,2.08
13693.0,2.13
13695.0,2.17
13697.0,1.97
13699.0,1.79
13701.0,1.39
13703.0,1.29
13705.0,1.35
13706.0,1.44
13708.0,1.56
13710.0,1.59
13712.0,1.95
13714.0,2.03
13716.0,1.94
13718.0,1.73
13720.0,1.66
13722.0,1.68
13725.0,1.49
13727.0,1.53
13729.0,1.7
13731.0,1.83
13733.0,1.87
13735.0,1.78
13737.0,1.86
13739.0,1.83
13741.0,1.58
13743.0,1.02
13745.0,0.76
13747.0,0.75
13749.0,0.75
13750.0,0.8
13752.0,0.87
13754.0,0.91
13756.0,0.87
13758.0,0.46
13760.0,0.31
13762.0,0.4
13764.0,0.36
13767.0,0.31
13769.0,0.55
13771.0,0.63
13773.0,0.94
13775.0,0.94
13777.0,0.63
13779.0,0.46
13781.0,0.38
13783.0,0.44
13785.0,0.38
13787.0,0.42
13789.0,0.49
13791.0,0.68
13792.0,1.15
13794.0,1.15
13796.0,1.07
13798.0,0.98
13800.0,0.81
13802.0,0.92
13804.0,0.91
13806.0,1.02
13809.0,1.09
13811.0,1.08
13813.0,1.11
13815.0,1.18
13817.0,0.95
13819.0,0.95
13821.0,0.85
13823.0,1.02
13825.0,0.84
13827.0,0.81
13829.0,0.91
13831.0,1.1
13833.0,1.31
13834.0,1.25
13836.0,1.24
13838.0,1.06
13840.0,0.74
13842.0,0.72
13844.0,0.55
13846.0,0.66
13848.0,0.89
13850.0,1.05
13853.0,1.44
13855.0,1.56
13857.0,1.55
13859.0,1.36
13861.0,1.11
13863.0,1.04
13865.0,1.07
13867.0,1.14
13869.0,1.39
13871.0,1.46
13873.0,1.65
13875.0,1.57
13877.0,1.63
13878.0,1.33
13880.0,1.39
13882.0,1.32
13884.0,1.29
13886.0,1.38
13888.0,1.51
13890.0,1.46
13892.0,1.6
13895.0,1.53
13897.0,1.36
13899.0,1.29
13901.0,1.16
13903.0,1.12
13905.0,1.18
13907.0,1.2
13909.0,1.36
13911.0,1.32
13913.0,1.36
13915.0,1.32
13917.0,1.36
13919.0,1.25
13920.0,1.11
13922.0,1.27
13924.0,1.19
13926.0,1.11
13928.0,1.35
13930.0,1.61
13932.0,1.61
13934.0,1.63
13937.0,1.65
13939.0,1.45
13941.0,1.26
13943.0,1.27
13945.0,1.16
13947.0,1.25
13949.0,1.23
13951.0,1.44
13953.0,1.51
13955.0,1.52
13957.0,1.51
13959.0,1.33
13961.0,1.1
13963.0,1.05
13964.0,1.08
13966.0,1.05
13968.0,1.34
13970.0,1.53
13972.0,1.68
13974.0,1.53
13976.0,1.27
13978.0,1.18
13981.0,1.09
13983.0,1.19
13985.0,1.21
13987.0,1.25
13989.0,1.37
13991.0,1.44
13993.0,1.51
13995.0,1.55
13997.0,1.45
13999.0,1.25
14001.0,0.95
14003.0,0.87
14005.0,1.15
14006.0,1.18
14008.0,1.42
14010.0,1.35
14012.0,1.36
14014.0,1.23
14016.0,1.28
14018.0,1.19
14020.0,1.14
14023.0,1.18
14025.0,1.36
14027.0,1.43
14029.0,1.96
14031.0,1.8
14033.0,1.92
14035.0,1.98
14037.0,2.0
14039.0,1.77
14041.0,1.59
14043.0,1.75
14045.0,1.66
14047.0,1.62
14048.0,1.84
14050.0,1.78
14052.0,2.05
14054.0,1.81
14056.0,1.75
14058.0,1.46
14060.0,1.42
14062.0,1.21
14065.0,1.35
14067.0,1.46
14069.0,1.62
14071.0,1.61
14073.0,1.73
14075.0,1.57
14077.0,1.42
14079.0,1.26
14081.0,0.95
14083.0,1.15
14085.0,1.47
14087.0,1.58
14089.0,1.63
14091.0,1.62
14092.0,1.59
14094.0,1.59
14096.0,1.4
14098.0,1.13
14100.0,0.86
14102.0,1.12
14104.0,1.14
14106.0,1.18
14109.0,1.03
14111.0,1.02
14113.0,1.18
14115.0,1.44
14117.0,1.44
14119.0,1.28
14121.0,1.17
14123.0,1.13
14125.0,0.79
14127.0,0.83
14129.0,0.6
14131.0,0.86
14133.0,1.03
14134.0,0.96
14136.0,0.88
14138.0,0.66
14140.0,0.54
14142.0,0.51
14144.0,0.47
14146.0,0.47
14148.0,0.51
14151.0,0.62
14153.0,0.87
14155.0,0.87
14157.0,0.91
14159.0,0.47
14161.0,0.25
14163.0,0.61
14165.0,0.58
14167.0,0.68
14169.0,0.78
14171.0,0.88
14173.0,0.93
14175.0,0.64
14176.0,0.76
14178.0,0.65
14180.0,0.42
14182.0,0.5
14184.0,0.53
14186.0,0.91
14188.0,1.0
14190.0,1.12
14193.0,1.36
14195.0,1.15
14197.0,1.04
14199.0,0.98
14201.0,1.29
14203.0,1.24
14205.0,1.31
14207.0,1.42
14209.0,1.47
14211.0,1.46
14213.0,1.42
14215.0,1.59
14217.0,1.61
14219.0,1.33
14220.0,1.21
14222.0,1.27
14224.0,1.31
14226.0,1.36
14228.0,1.57
14230.0,1.71
14232.0,1.87
14234.0,1.66
14237.0,1.78
14239.0,1.55
14241.0,1.54
14243.0,1.49
14245.0,1.39
14247.0,1.36
14249.0,1.39
14251.0,1.38
14253.0,1.99
14255.0,1.97
14257.0,1.96
14259.0,1.57
14261.0,1.38
14262.0,1.22
14264.0,1.25
14266.0,1.35
14268.0,1.61
14270.0,1.65
14272.0,1.78
14274.0,1.51
14276.0,1.15
14279.0,1.07
14281.0,0.98
14283.0,0.91
14285.0,0.98
14287.0,1.12
14289.0,1.15
14291.0,1.32
14293.0,1.47
14295.0,1.42
14297.0,1.17
14299.0,1.23
14301.0,1.37
14303.0,1.67
14304.0,1.56
14306.0,1.65
14308.0,1.77
14310.0,1.69
14312.0,1.84
14314.0,1.83
14316.0,1.78
14318.0,1.57
14321.0,1.55
14323.0,1.51
14325.0,1.67
14327.0,1.15
14329.0,1.02
14331.0,1.16
14333.0,1.3
14335.0,1.35
14337.0,1.29
14339.0,0.91
14341.0,0.99
14343.0,0.98
14345.0,0.86
14347.0,1.01
14348.0,1.29
14350.0,1.51
14352.0,1.61
14354.0,1.54
14356.0,1.56
14358.0,1.3
14360.0,1.15
14362.0,1.22
14365.0,1.33
14367.0,1.43
14369.0,1.53
14371.0,1.75
14373.0,1.79
14375.0,1.52
14377.0,1.26
14379.0,1.01
14381.0,1.06
14383.0,1.07
14385.0,1.13
14387.0,1.41
14389.0,1.62
14390.0,1.77
14392.0,1.84
14394.0,1.72
14396.0,1.85
14398.0,1.65
14400.0,1.77
14402.0,1.67
14404.0,1.83
14407.0,1.97
14409.0,2.05
14411.0,2.14
14413.0,2.21
14415.0,2.27
14417.0,2.27
14419.0,1.99
14421.0,2.03
14423.0,1.89
14425.0,1.68
14427.0,1.92
14429.0,2.19
14431.0,2.21
14432.0,2.55
14434.0,2.55
14436.0,2.48
14438.0,2.15
14440.0,2.1
14442.0,2.1
14444.0,2.17
14446.0,2.15
14449.0,2.45
14451.0,2.5
14453.0,2.65
14455.0,2.44
14457.0,2.26
14459.0,2.03
14461.0,1.95
14463.0,1.92
14465.0,1.9
14467.0,2.01
14469.0,2.11
14471.0,2.13
14473.0,2.47
14475.0,2.37
14476.0,2.25
14478.0,2.11
14480.0,2.15
14482.0,2.28
14484.0,2.25
14486.0,2.12
14488.0,2.16
14490.0,2.32
14493.0,2.4
14495.0,2.35
14497.0,2.28
14499.0,2.04
14501.0,2.0
14503.0,2.06
14505.0,2.01
14507.0,2.11
14509.0,2.17
14511.0,2.12
14513.0,2.21
14515.0,2.16
14517.0,1.95
14518.0,1.83
14520.0,1.94
14522.0,2.16
14524.0,2.1
14526.0,2.52
14528.0,2.78
14530.0,2.81
14532.0,2.79
14535.0,2.62
14537.0,2.5
14539.0,2.35
14541.0,2.19
14543.0,2.19
14545.0,2.44
14547.0,2.69
14549.0,2.75
14551.0,2.84
14553.0,3.12
14555.0,3.3
14557.0,3.3
14559.0,3.3
14560.0,3.3
14562.0,3.3
14564.0,3.3
14566.0,3.3
14568.0,3.3
14570.0,3.3
14572.0,3.3
14574.0,3.3
14577.0,3.3
14579.0,3.3
14581.0,3.3
14583.0,3.3
14585.0,3.3
14587.0,3.3
14589.0,3.25
14591.0,3.25
14593.0,3.12
14595.0,2.75
14597.0,2.52
14599.0,2.16
14601.0,2.02
14603.0,1.97
14604.0,1.92
14606.0,1.75
14608.0,1.75
14610.0,1.69
14612.0,1.65
14614.0,1.59
14616.0,1.5
14618.0,1.08
14621.0,1.09
14623.0,1.07
14625.0,0.87
14627.0,0.89
14629.0,1.03
14631.0,1.05
14633.0,1.04
14635.0,1.0
14637.0,0.98
14639.0,0.68
14641.0,0.54
14643.0,0.37
14645.0,0.43
14646.0,0.46
14648.0,0.43
14650.0,0.6
14652.0,0.68
14654.0,0.73
14656.0,0.59
14658.0,0.25
14660.0,0.11
14663.0,0.15
14665.0,0.21
14667.0,0.36
14669.0,0.51
14671.0,0.79
14673.0,1.04
14675.0,0.94
14677.0,0.75
14679.0,0.58
14681.0,0.47
14683.0,0.45
14685.0,0.56
14687.0,0.66
14688.0,0.7
14690.0,0.87
14692.0,0.86
14694.0,0.57
14696.0,0.93
14698.0,1.06
14700.0,1.01
14702.0,0.98
14705.0,1.11
14707.0,1.28
14709.0,1.43
14711.0,1.64
14713.0,1.52
14715.0,1.56
14717.0,1.25
14719.0,1.02
14721.0,0.99
14723.0,0.92
14725.0,0.98
14727.0,0.86
14729.0,0.96
14731.0,1.16
14732.0,1.26
14734.0,1.27
14736.0,1.16
14738.0,0.8
14740.0,0.77
14742.0,0.74
14744.0,0.58
14746.0,0.72
14749.0,0.98
14751.0,1.14
14753.0,1.27
14755.0,1.0
14757.0,0.89
14759.0,0.73
14761.0,0.59
14763.0,0.38
14765.0,0.56
14767.0,0.64
14769.0,0.82
14771.0,1.01
14773.0,1.12
14774.0,1.03
14776.0,0.94
14778.0,0.91
14780.0,0.88
14782.0,1.1
14784.0,1.2
14786.0,1.38
14788.0,1.3
14791.0,1.32
14793.0,1.48
14795.0,1.43
14797.0,1.26
14799.0,1.06
14801.0,1.15
14803.0,1.11
14805.0,1.6
14807.0,1.94
14809.0,2.01
14811.0,1.93
14813.0,2.04
14815.0,1.87
14816.0,1.46
14818.0,1.22
14820.0,1.25
14822.0,1.23
14824.0,0.97
14826.0,1.09
14828.0,1.35
14830.0,1.41
14833.0,1.55
14835.0,1.55
14837.0,1.46
14839.0,1.2
14841.0,1.11
14843.0,1.1
14845.0,1.05
14847.0,1.19
14849.0,1.22
14851.0,1.48
14853.0,1.4
14855.0,1.35
14857.0,1.3
14859.0,1.08
14860.0,1.03
14862.0,0.86
14864.0,0.96
14866.0,1.14
14868.0,1.21
14870.0,1.38
14872.0,1.44
14874.0,1.31
14877.0,1.07
14879.0,1.04
14881.0,0.87
14883.0,0.99
14885.0,1.06
14887.0,1.13
14889.0,1.24
14891.0,1.44
14893.0,1.29
14895.0,1.19
14897.0,1.07
14899.0,0.86
14901.0,1.01
14902.0,1.07
14904.0,1.14
14906.0,1.16
14908.0,1.14
14910.0,1.09
14912.0,1.15
14914.0,1.12
14916.0,1.06
14919.0,1.12
14921.0,1.21
14923.0,1.18
14925.0,1.23
14927.0,1.18
14929.0,1.41
14931.0,1.5
14933.0,1.51
14935.0,1.62
14937.0,1.74
14939.0,1.61
14941.0,1.67
14943.0,1.42
14944.0,1.56
14946.0,1.35
14948.0,1.66
14950.0,1.7
14952.0,1.67
14954.0,1.8
14956.0,1.55
14958.0,1.11
14961.0,0.94
14963.0,0.81
14965.0,0.99
14967.0,1.08
14969.0,1.47
14971.0,1.55
14973.0,1.77
14975.0,1.37
14977.0,1.39
14979.0,1.29
14981.0,1.35
14983.0,1.2
14985.0,1.21
14987.0,1.26
14988.0,1.15
14990.0,1.25
14992.0,1.27
14994.0,1.26
14996.0,1.17
14998.0,1.13
15000.0,1.11
15002.0,1.27
15005.0,1.19
15007.0,1.42
15009.0,1.22
15011.0,1.49
15013.0,1.49
15015.0,1.58
15017.0,1.39
15019.0,1.13
15021.0,1.09
15023.0,1.12
15025.0,1.14
15027.0,1.3
15029.0,1.66
15030.0,1.74
15032.0,1.77
15034.0,1.67
15036.0,1.45
15038.0,1.22
15040.0,1.42
15042.0,1.4
15044.0,1.4
15047.0,1.43
15049.0,1.53
15051.0,1.68
15053.0,1.69
15055.0,1.67
15057.0,1.57
15059.0,1.29
15061.0,1.18
15063.0,1.41
15065.0,1.36
15067.0,1.71
15069.0,1.76
15071.0,1.8
15072.0,1.79
15074.0,1.79
15076.0,1.63
15078.0,1.48
15080.0,1.25
15082.0,1.15
15084.0,1.32
15086.0,1.28
15089.0,1.31
15091.0,1.39
15093.0,1.65
15095.0,1.26
15097.0,0.52
15099.0,0.51
15101.0,0.59
15103.0,0.55
15105.0,0.49
15107.0,0.73
15109.0,0.62
15111.0,0.61
15113.0,0.74
15115.0,0.81
15116.0,0.75
15118.0,0.73
15120.0,0.66
15122.0,0.51
15124.0,0.77
15126.0,0.87
15128.0,1.05
15130.0,1.17
15133.0,1.34
15135.0,1.28
15137.0,0.91
15139.0,0.56
15141.0,0.69
15143.0,0.44
15145.0,0.25
15147.0,0.61
15149.0,0.86
15151.0,1.24
15153.0,1.35
15155.0,1.19
15157.0,0.92
15158.0,0.33
15160.0,0.24
15162.0,0.11
15164.0,0.45
15166.0,0.37
15168.0,0.52
15170.0,0.8
15172.0,0.91
15175.0,0.5
15177.0,0.49
15179.0,0.34
15181.0,0.54
15183.0,0.6
15185.0,0.55
15187.0,0.61
15189.0,0.7
15191.0,0.92
15193.0,0.92
15195.0,0.91
15197.0,0.63
15199.0,0.49
15200.0,0.85
15202.0,0.94
15204.0,0.85
15206.0,0.94
15208.0,1.09
15210.0,1.2
15212.0,1.19
15214.0,1.07
15217.0,1.09
15219.0,1.28
15221.0,1.1
15223.0,1.09
15225.0,1.28
15227.0,1.05
15229.0,1.45
15231.0,1.41
15233.0,1.61
15235.0,1.71
15237.0,1.14
15239.0,0.61
15241.0,0.51
15243.0,0.51
15244.0,0.61
15246.0,0.67
15248.0,0.85
15250.0,1.05
15252.0,1.05
15254.0,1.16
15256.0,1.12
15258.0,0.98
15261.0,1.13
15263.0,1.19
15265.0,1.02
15267.0,1.46
15269.0,1.54
15271.0,1.84
15273.0,1.77
15275.0,1.4
15277.0,1.15
15279.0,0.95
15281.0,1.04
15283.0,1.19
15285.0,1.26
15286.0,1.5
15288.0,1.69
15290.0,1.8
15292.0,2.02
15294.0,1.76
15296.0,1.54
15298.0,1.15
15300.0,1.15
15303.0,0.99
15305.0,1.18
15307.0,1.22
15309.0,1.22
15311.0,1.09
15313.0,1.39
15315.0,1.35
15317.0,1.23
15319.0,1.01
15321.0,0.92
15323.0,1.17
15325.0,1.2
15327.0,0.92
15328.0,0.79
15330.0,0.92
15332.0,1.34
15334.0,1.53
15336.0,1.33
15338.0,1.04
15340.0,0.67
15342.0,0.45
15345.0,0.46
15347.0,0.37
15349.0,0.4
15351.0,0.63
15353.0,0.45
15355.0,0.06
15357.0,0.46
15359.0,0.42
15361.0,0.49
15363.0,0.49
15365.0,0.72
15367.0,1.04
15369.0,1.36
15371.0,1.23
15372.0,1.1
15374.0,0.99
15376.0,1.21
15378.0,1.32
15380.0,1.51
15382.0,1.6
15384.0,1.68
15386.0,1.74
15389.0,1.76
15391.0,1.95
15393.0,1.87
15395.0,1.97
15397.0,1.94
15399.0,1.74
15401.0,1.26
15403.0,1.1
15405.0,1.46
15407.0,1.59
15409.0,1.58
15411.0,1.69
15413.0,1.65
15414.0,1.45
15416.0,1.43
15418.0,1.44
15420.0,1.34
15422.0,2.05
15424.0,2.21
15426.0,2.38
15428.0,2.67
15431.0,3.04
15433.0,3.1
15435.0,3.3
15437.0,3.3
15439.0,3.3
15441.0,3.3
15443.0,3.3
15445.0,3.3
15447.0,3.3
15449.0,3.3
15451.0,3.3
15453.0,3.3
15455.0,3.3
15456.0,3.3
15458.0,3.3
15460.0,3.3
15462.0,3.3
15464.0,3.3
15466.0,3.3
15468.0,3.3
15470.0,3.3
15473.0,3.3
15475.0,3.3
15477.0,3.3
15479.0,3.3
15481.0,3.3
15483.0,3.3
15485.0,3.3
15487.0,3.3
15489.0,3.3
15491.0,3.3
15493.0,3.3
15495.0,3.3
15497.0,3.3
15499.0,3.3
15500.0,3.3
15502.0,3.3
15504.0,3.3
15506.0,3.3
15508.0,3.3
15510.0,3.3
15512.0,3.3
15514.0,3.24
15517.0,3.08
15519.0,3.01
15521.0,2.98
15523.0,2.45
15525.0,2.11
15527.0,2.01
15529.0,2.06
15531.0,2.19
15533.0,2.22
15535.0,2.01
15537.0,1.81
15539.0,1.53
15541.0,1.48
15542.0,1.41
15544.0,1.52
15546.0,1.65
15548.0,1.61
15550.0,1.63
15552.0,1.65
15554.0,1.63
15556.0,1.46
15559.0,1.05
15561.0,1.14
15563.0,1.22
15565.0,1.2
15567.0,1.35
15569.0,1.37
15571.0,1.56
15573.0,1.29
15575.0,1.31
15577.0,1.25
15579.0,1.03
15581.0,0.83
15583.0,0.95
15584.0,1.19
15586.0,1.44
15588.0,1.65
15590.0,1.64
15592.0,1.77
15594.0,2.09
15596.0,1.82
15598.0,1.74
15601.0,1.81
15603.0,1.74
15605.0,1.63
15607.0,1.54
15609.0,1.63
15611.0,1.87
15613.0,1.91
15615.0,1.7
15617.0,1.48
15619.0,1.34
15621.0,1.2
15623.0,1.14
15625.0,1.16
15627.0,1.15
15628.0,1.17
15630.0,1.22
15632.0,0.87
15634.0,0.9
15636.0,0.88
15638.0,0.77
15640.0,0.8
15642.0,0.74
15645.0,0.98
15647.0,0.9
15649.0,1.04
15651.0,1.13
15653.0,1.18
15655.0,1.08
15657.0,0.9
15659.0,0.72
15661.0,0.85
15663.0,0.78
15665.0,0.79
15667.0,0.79
15669.0,1.0
15670.0,1.28
15672.0,1.43
15674.0,1.24
15676.0,1.45
15678.0,1.77
15680.0,1.78
15682.0,1.22
15684.0,1.17
15687.0,1.24
15689.0,1.36
15691.0,1.57
15693.0,1.66
15695.0,1.6
15697.0,1.36
15699.0,1.28
15701.0,1.37
15703.0,1.27
15705.0,1.54
15707.0,1.62
15709.0,1.76
15711.0,1.81
15712.0,1.62
15714.0,1.36
15716.0,1.23
15718.0,1.07
15720.0,1.03
15722.0,1.09
15724.0,1.16
15726.0,1.27
15729.0,1.47
15731.0,1.75
15733.0,1.79
15735.0,1.76
15737.0,1.62
15739.0,1.45
15741.0,1.35
15743.0,1.44
15745.0,1.38
15747.0,1.49
15749.0,1.73
15751.0,1.97
15753.0,1.91
15755.0,1.88
15756.0,1.58
15758.0,1.54
15760.0,1.63
15762.0,1.73
15764.0,1.88
15766.0,2.02
15768.0,2.04
15770.0,2.23
15773.0,2.09
15775.0,2.13
15777.0,2.08
15779.0,1.99
15781.0,1.96
15783.0,1.79
15785.0,2.01
15787.0,2.44
15789.0,2.55
15791.0,2.7
15793.0,2.43
15795.0,2.26
15797.0,1.8
15798.0,1.61
15800.0,1.44
15802.0,1.42
15804.0,1.45
15806.0,1.54
15808.0,1.4
15810.0,1.61
15812.0,1.39
15815.0,1.25
15817.0,0.95
15819.0,0.76
15821.0,0.95
15823.0,1.11
15825.0,1.22
15827.0,1.45
15829.0,1.67
15831.0,1.74
15833.0,1.48
15835.0,1.33
15837.0,1.17
15839.0,1.02
15840.0,0.99
15842.0,1.0
15844.0,1.16
15846.0,1.15
15848.0,1.25
15850.0,1.35
15852.0,1.35
15854.0,1.22
15857.0,1.08
15859.0,1.03
15861.0,1.11
15863.0,0.97
15865.0,0.97
15867.0,1.01
15869.0,1.15
15871.0,1.24
15873.0,1.38
15875.0,1.27
15877.0,1.13
15879.0,0.99
15881.0,0.95
15883.0,0.98
15884.0,0.99
15886.0,1.22
15888.0,1.27
15890.0,1.4
15892.0,1.38
15894.0,1.33
15896.0,0.96
15898.0,0.98
15901.0,1.04
15903.0,1.02
15905.0,1.13
15907.0,1.15
15909.0,1.11
15911.0,1.28
15913.0,1.18
15915.0,1.34
15917.0,1.15
15919.0,1.11
15921.0,1.29
15923.0,1.12
15925.0,0.81
15926.0,1.09
15928.0,1.22
15930.0,1.41
15932.0,1.28
15934.0,1.26
15936.0,1.16
15938.0,1.22
15940.0,1.2
15943.0,1.15
15945.0,1.16
15947.0,1.22
15949.0,1.16
15951.0,1.5
15953.0,1.53
15955.0,1.39
15957.0,1.16
15959.0,1.06
15961.0,0.99
15963.0,1.09
15965.0,0.84
15967.0,0.97
15968.0,1.03
15970.0,1.19
15972.0,1.02
15974.0,1.04
15976.0,0.81
15978.0,0.66
15980.0,0.61
15982.0,0.69
15985.0,0.68
15987.0,0.87
15989.0,1.05
15991.0,1.37
15993.0,1.31
15995.0,1.22
15997.0,0.86
15999.0,0.96
16001.0,0.99
16003.0,1.14
16005.0,1.32
16007.0,1.31
16009.0,1.5
16011.0,1.59
16012.0,1.39
16014.0,1.32
16016.0,1.12
16018.0,0.98
16020.0,1.05
16022.0,1.01
16024.0,1.25
16026.0,1.27
16029.0,1.4
16031.0,1.72
16033.0,1.69
16035.0,1.54
16037.0,1.44
16039.0,1.31
16041.0,1.25
16043.0,1.24
16045.0,1.5
16047.0,1.73
16049.0,1.8
16051.0,1.92
16053.0,1.95
16054.0,1.85
16056.0,1.32
16058.0,1.26
16060.0,1.37
16062.0,1.47
16064.0,1.51
16066.0,1.47
16068.0,1.23
16071.0,1.78
16073.0,1.82
16075.0,1.83
16077.0,1.51
16079.0,1.44
16081.0,1.36
16083.0,1.42
16085.0,1.4
16087.0,1.87
16089.0,2.28
16091.0,2.48
16093.0,2.2
16095.0,2.44
16096.0,2.39
16098.0,2.25
16100.0,2.11
16102.0,2.01
16104.0,1.77
16106.0,1.57
16108.0,1.53
16110.0,1.51
16113.0,1.47
16115.0,0.94
16117.0,0.76
16119.0,0.74
16121.0,0.54
16123.0,0.73
16125.0,0.54
16127.0,0.23
16129.0,0.16
16131.0,0.63
16133.0,0.23
16135.0,0.27
16137.0,0.04
16139.0,0.0
16140.0,0.0
16142.0,0.0
16144.0,0.0
16146.0,0.0
16148.0,0.0
16150.0,0.0
16152.0,0.01
16154.0,0.07
16157.0,0.33
16159.0,0.49
16161.0,0.49
16163.0,0.62
16165.0,0.63
16167.0,0.64
16169.0,0.42
16171.0,1.09
16173.0,1.28
16175.0,1.15
16177.0,0.74
16179.0,0.57
16181.0,0.98
16182.0,1.14
16184.0,1.15
16186.0,1.34
16188.0,1.34
16190.0,1.51
16192.0,1.53
16194.0,1.19
16196.0,1.07
16199.0,0.92
16201.0,0.66
16203.0,0.77
16205.0,1.04
16207.0,0.94
16209.0,0.71
16211.0,0.85
16213.0,0.67
16215.0,0.59
16217.0,0.36
16219.0,0.07
16221.0,0.61
16223.0,0.0
16224.0,0.0
16226.0,0.0
16228.0,0.0
16230.0,0.0
16232.0,0.04
16234.0,0.0
16236.0,0.0
16238.0,0.0
16241.0,0.0
16243.0,0.0
16245.0,0.0
16247.0,0.0
16249.0,0.0
16251.0,0.0
16253.0,0.0
16255.0,0.0
16257.0,0.0
16259.0,0.0
16261.0,0.0
16263.0,0.0
16265.0,0.0
16267.0,0.0
16268.0,0.0
16270.0,0.0
16272.0,0.0
16274.0,0.0
16276.0,0.0
16278.0,0.0
16280.0,0.0
16282.0,0.36
16285.0,0.38
16287.0,0.55
16289.0,0.57
16291.0,0.75
16293.0,0.77
16295.0,0.67
16297.0,0.45
16299.0,0.84
16301.0,0.93
16303.0,0.99
16305.0,1.15
16307.0,1.3
16309.0,1.05
16310.0,1.49
16312.0,1.6
16314.0,1.44
16316.0,1.31
16318.0,1.56
16320.0,1.26
16322.0,1.35
16324.0,1.42
16327.0,1.76
16329.0,1.94
16331.0,2.16
16333.0,2.27
16335.0,2.25
16337.0,2.0
16339.0,2.1
16341.0,2.39
16343.0,2.57
16345.0,2.64
16347.0,3.0
16349.0,3.3
16351.0,3.3
16352.0,3.3
16354.0,3.3
16356.0,3.3
16358.0,3.3
16360.0,3.3
16362.0,3.3
16364.0,3.3
16366.0,3.3
16369.0,3.3
16371.0,3.3
16373.0,3.3
16375.0,3.3
16377.0,3.3
16379.0,3.3
16381.0,3.3
16383.0,3.3
16385.0,3.3
16387.0,3.3
16389.0,3.3
16391.0,3.3
16393.0,3.3
16395.0,3.3
16396.0,3.26
16398.0,3.27
16400.0,3.29
16402.0,3.25
16404.0,3.29
16406.0,3.3
16408.0,3.3
16410.0,3.3
16413.0,3.3
16415.0,3.3
16417.0,3.09
16419.0,3.03
16421.0,3.04
16423.0,3.23
16425.0,3.3
16427.0,3.3
16429.0,3.3
16431.0,3.3
16433.0,3.3
16435.0,3.3
16437.0,3.3
16438.0,3.3
16440.0,3.3
16442.0,3.3
16444.0,3.3
16446.0,3.3
16448.0,3.3
16450.0,3.3
16452.0,3.3
16455.0,3.3
16457.0,3.3
16459.0,3.3
16461.0,3.3
16463.0,3.3
16465.0,3.3
16467.0,3.3
16469.0,3.3
16471.0,3.3
16473.0,3.3
16475.0,3.3
16477.0,3.3
16479.0,3.3
16480.0,3.3
16482.0,3.3
16484.0,3.3
16486.0,3.3
16488.0,3.3
16490.0,3.3
16492.0,3.3
16494.0,3.3
16497.0,3.3
16499.0,3.3
16501.0,3.16
16503.0,3.1
16505.0,3.06
16507.0,3.03
16509.0,3.01
16511.0,2.98
16513.0,2.84
16515.0,2.64
16517.0,2.24
16519.0,2.34
16521.0,2.11
16523.0,2.07
16524.0,2.04
16526.0,1.98
16528.0,1.99
16530.0,2.03
16532.0,1.97
16534.0,1.82
16536.0,1.45
16538.0,1.52
16541.0,1.51
16543.0,1.28
16545.0,1.25
16547.0,1.39
16549.0,1.52
16551.0,1.56
16553.0,1.51
16555.0,1.19
16557.0,0.93
16559.0,0.82
16561.0,0.91
16563.0,1.13
16565.0,1.12
16566.0,1.14
16568.0,0.88
16570.0,0.88
16572.0,0.78
16574.0,0.57
16576.0,0.22
16578.0,0.32
16580.0,0.3
16583.0,0.21
16585.0,0.41
16587.0,0.49
16589.0,0.39
16591.0,0.01
16593.0,0.0
16595.0,0.0
16597.0,0.0
16599.0,0.0
16601.0,0.0
16603.0,0.0
16605.0,0.12
16607.0,0.22
16609.0,0.28
16610.0,0.06
16612.0,0.0
16614.0,0.0
16616.0,0.0
16618.0,0.0
16620.0,0.0
16622.0,0.12
16625.0,0.1
16627.0,0.41
16629.0,0.64
16631.0,0.9
16633.0,0.91
16635.0,0.9
16637.0,0.7
16639.0,0.74
16641.0,0.67
16643.0,0.78
16645.0,0.84
16647.0,0.99
16649.0,1.11
16651.0,1.22
16652.0,1.13
16654.0,1.05
16656.0,0.82
16658.0,0.81
16660.0,0.8
16662.0,0.85
16664.0,1.02
16666.0,1.42
16669.0,1.46
16671.0,1.43
16673.0,1.55
16675.0,1.43
16677.0,1.23
16679.0,1.07
16681.0,0.99
16683.0,1.36
16685.0,1.4
16687.0,1.52
16689.0,1.57
16691.0,1.66
16693.0,1.37
16694.0,1.28
16696.0,1.13
16698.0,1.31
16700.0,1.32
16702.0,1.35
16704.0,1.56
16706.0,1.8
16708.0,1.68
16711.0,1.59
16713.0,1.65
16715.0,1.58
16717.0,1.33
16719.0,1.39
16721.0,1.31
16723.0,1.29
16725.0,1.39
16727.0,1.57
16729.0,1.84
16731.0,1.79
16733.0,1.72
16735.0,1.67
16737.0,1.47
16738.0,1.36
16740.0,1.58
16742.0,1.23
16744.0,1.35
16746.0,1.62
16748.0,1.63
16750.0,1.73
16753.0,1.71
16755.0,1.51
16757.0,1.2
16759.0,1.13
16761.0,1.11
16763.0,1.19
16765.0,1.35
16767.0,1.43
16769.0,1.5
16771.0,1.62
16773.0,1.55
16775.0,1.36
16777.0,1.23
16779.0,1.22
16780.0,1.2
16782.0,1.28
16784.0,1.39
16786.0,1.39
16788.0,1.5
16790.0,1.41
16792.0,1.31
16794.0,1.2
16797.0,1.14
16799.0,1.24
16801.0,1.21
16803.0,1.17
16805.0,1.32
16807.0,1.4
16809.0,1.39
16811.0,1.36
16813.0,1.45
16815.0,1.32
16817.0,1.21
16819.0,1.19
16821.0,1.19
16822.0,1.15
16824.0,1.29
16826.0,1.42
16828.0,1.53
16830.0,1.57
16832.0,1.6
16834.0,1.5
16836.0,1.3
16839.0,1.34
16841.0,1.14
16843.0,1.23
16845.0,1.27
16847.0,1.5
16849.0,1.68
16851.0,1.68
16853.0,1.55
16855.0,1.55
16857.0,1.25
16859.0,1.1
16861.0,1.07
16863.0,1.02
16865.0,1.08
16866.0,1.29
16868.0,1.51
16870.0,1.72
16872.0,1.58
16874.0,1.54
16876.0,1.37
16878.0,1.32
16881.0,1.22
16883.0,1.32
16885.0,1.51
16887.0,1.45
16889.0,1.58
16891.0,1.49
16893.0,1.44
16895.0,1.51
16897.0,1.4
16899.0,1.36
16901.0,1.5
16903.0,1.52
16905.0,1.54
16907.0,1.54
16908.0,1.57
16910.0,1.63
16912.0,1.67
16914.0,1.43
16916.0,1.32
16918.0,1.33
16920.0,1.29
16922.0,1.29
16925.0,1.31
16927.0,1.48
16929.0,1.7
16931.0,1.63
16933.0,1.74
16935.0,1.59
16937.0,1.22
16939.0,1.16
16941.0,1.25
16943.0,1.27
16945.0,1.29
16947.0,1.51
16949.0,1.71
16951.0,1.72
16952.0,1.68
16954.0,1.42
16956.0,1.15
16958.0,1.01
16960.0,1.17
16962.0,1.17
16964.0,1.27
16967.0,1.46
16969.0,1.63
16971.0,1.65
16973.0,1.53
16975.0,1.37
16977.0,1.18
16979.0,1.1
16981.0,1.19
16983.0,1.37
16985.0,1.4
16987.0,1.51
16989.0,1.79
16991.0,1.85
16993.0,1.73
16994.0,1.41
16996.0,1.3
16998.0,1.32
17000.0,1.26
17002.0,1.35
17004.0,1.39
17006.0,1.38
17009.0,1.37
17011.0,1.44
17013.0,1.4
17015.0,1.38
17017.0,1.25
17019.0,1.28
17021.0,0.95
17023.0,1.16
17025.0,1.32
17027.0,1.39
17029.0,1.54
17031.0,1.56
17033.0,1.43
17035.0,1.35
17036.0,1.25
17038.0,0.84
17040.0,1.14
17042.0,1.34
17044.0,1.35
17046.0,1.47
17048.0,1.67
17050.0,1.65
17053.0,1.7
17055.0,1.76
17057.0,1.5
17059.0,1.28
17061.0,1.35
17063.0,1.45
17065.0,1.54
17067.0,1.79
17069.0,1.81
17071.0,1.9
17073.0,1.63
17075.0,1.45
17077.0,1.48
17079.0,1.55
17080.0,1.53
17082.0,1.55
17084.0,1.59
17086.0,1.49
17088.0,1.75
17090.0,1.82
17092.0,1.73
17095.0,1.53
17097.0,1.32
17099.0,1.12
17101.0,1.13
17103.0,1.41
17105.0,1.65
17107.0,1.58
17109.0,1.63
17111.0,1.68
17113.0,1.53
17115.0,0.9
17117.0,0.69
17119.0,0.39
17121.0,0.0
17122.0,0.02
17124.0,0.78
17126.0,1.16
17128.0,1.51
17130.0,1.61
17132.0,1.9
17134.0,1.51
17137.0,1.89
17139.0,2.43
17141.0,2.48
17143.0,1.93
17145.0,1.95
17147.0,1.63
17149.0,1.8
17151.0,1.95
17153.0,0.67
17155.0,0.0
17157.0,0.0
17159.0,0.0
17161.0,0.0
17163.0,0.0
17164.0,0.0
17166.0,0.0
17168.0,0.0
17170.0,0.0
17172.0,0.0
17174.0,0.0
17176.0,0.0
17178.0,0.0
17181.0,0.0
17183.0,0.0
17185.0,0.0
17187.0,0.0
17189.0,0.0
17191.0,0.0
17193.0,0.0
17195.0,0.0
17197.0,0.0
17199.0,0.0
17201.0,0.0
17203.0,0.0
17205.0,0.0
17207.0,0.0
17208.0,0.0
17210.0,0.0
17212.0,0.0
17214.0,0.0
17216.0,0.0
17218.0,0.04
17220.0,0.15
17223.0,0.5
17225.0,0.77
17227.0,0.97
17229.0,1.25
17231.0,1.29
17233.0,1.51
17235.0,1.28
17237.0,1.05
17239.0,1.11
17241.0,1.4
17243.0,1.75
17245.0,2.13
17247.0,2.29
17249.0,2.55
17250.0,2.69
17252.0,2.72
17254.0,2.11
17256.0,2.09
17258.0,1.98
17260.0,1.96
17262.0,2.18
17265.0,2.24
17267.0,2.3
17269.0,2.57
17271.0,2.55
17273.0,2.39
17275.0,2.19
17277.0,2.26
17279.0,2.25
17281.0,2.35
17283.0,2.41
17285.0,2.43
17287.0,2.45
17289.0,2.56
17291.0,2.62
17292.0,2.57
17294.0,2.29
17296.0,2.38
17298.0,2.52
17300.0,2.71
17302.0,2.78
17304.0,3.3
17306.0,3.3
17309.0,3.3
17311.0,3.3
17313.0,3.3
17315.0,3.3
17317.0,3.3
17319.0,3.3
17321.0,3.3
17323.0,3.3
17325.0,3.3
17327.0,3.3
17329.0,3.3
17331.0,3.3
17333.0,3.3
17335.0,3.3
17336.0,3.3
17338.0,3.3
17340.0,3.3
17342.0,3.27
17344.0,3.19
17346.0,3.24
17348.0,3.3
17351.0,2.73
17353.0,2.31
17355.0,2.16
17357.0,3.03
17359.0,3.3
17361.0,3.28
17363.0,3.3
17365.0,3.3
17367.0,3.3
17369.0,3.3
17371.0,3.3
17373.0,3.3
17375.0,3.17
17377.0,3.15
17378.0,3.17
17380.0,2.89
17382.0,2.72
17384.0,2.7
17386.0,2.74
17388.0,2.86
17390.0,2.85
17393.0,2.56
17395.0,1.86
17397.0,1.38
17399.0,1.51
17401.0,1.84
17403.0,1.46
17405.0,1.31
17407.0,0.94
17409.0,0.96
17411.0,0.95
17413.0,0.8
17415.0,0.72
17417.0,0.52
17419.0,0.62
17421.0,0.63
17422.0,0.71
17424.0,0.77
17426.0,0.91
17428.0,1.11
17430.0,1.37
17432.0,1.41
17434.0,1.07
17437.0,1.13
17439.0,1.22
17441.0,1.13
17443.0,1.07
17445.0,1.34
17447.0,1.34
17449.0,1.47
17451.0,1.49
17453.0,1.38
17455.0,1.11
17457.0,1.2
17459.0,0.95
17461.0,0.95
17463.0,1.3
17464.0,1.31
17466.0,1.34
17468.0,1.73
17470.0,1.61
17472.0,1.31
17474.0,1.01
17476.0,0.98
17479.0,0.96
17481.0,1.4
17483.0,1.51
17485.0,1.98
17487.0,1.95
17489.0,2.0
17491.0,1.62
17493.0,1.37
17495.0,1.1
17497.0,1.23
17499.0,1.16
17501.0,1.34
17503.0,1.2
17505.0,1.03
17506.0,0.85
17508.0,1.21
17510.0,1.26
17512.0,1.22
17514.0,1.15
17516.0,1.03
17518.0,1.02
17521.0,1.23
17523.0,1.12
17525.0,1.1
17527.0,1.19
17529.0,1.54
17531.0,1.78
17533.0,1.49
17535.0,1.23
17537.0,1.13
17539.0,1.03
17541.0,1.03
17543.0,1.08
17545.0,1.52
17547.0,1.39
17549.0,1.45
17550.0,1.67
17552.0,1.44
17554.0,1.2
17556.0,0.99
17558.0,0.76
17560.0,0.79
17562.0,1.19
17565.0,1.39
17567.0,1.64
17569.0,1.49
17571.0,1.48
17573.0,1.29
17575.0,1.61
17577.0,1.91
17579.0,1.64
17581.0,1.24
17583.0,1.4
17585.0,1.65
17587.0,1.86
17589.0,1.6
17591.0,1.24
17592.0,1.06
17594.0,1.13
17596.0,1.09
17598.0,1.05
17600.0,1.62
17602.0,1.36
17604.0,1.17
17607.0,1.3
17609.0,1.47
17611.0,1.35
17613.0,1.37
17615.0,1.33
17617.0,1.75
17619.0,1.69
17621.0,1.22
17623.0,0.98
17625.0,1.25
17627.0,1.96
17629.0,1.73
17631.0,1.5
17633.0,1.66
17634.0,1.15
17636.0,1.3
17638.0,1.1
17640.0,0.82
17642.0,0.86
17644.0,1.11
17646.0,1.39
17649.0,1.87
17651.0,1.87
17653.0,1.29
17655.0,0.91
17657.0,0.76
17659.0,0.73
17661.0,0.78
17663.0,0.91
17665.0,1.01
17667.0,1.0
17669.0,1.18
17671.0,1.15
17673.0,1.2
17675.0,0.77
17677.0,0.78
17678.0,1.36
17680.0,1.95
17682.0,1.5
17684.0,1.42
17686.0,1.45
17688.0,1.6
17690.0,1.55
17693.0,1.31
17695.0,1.13
17697.0,1.06
17699.0,1.09
17701.0,1.18
17703.0,1.23
17705.0,1.2
17707.0,1.17
17709.0,1.32
17711.0,1.36
17713.0,1.44
17715.0,1.22
17717.0,0.97
17719.0,1.04
17720.0,1.05
17722.0,1.05
17724.0,1.2
17726.0,1.14
17728.0,1.25
17730.0,1.5
17732.0,1.4
17735.0,1.2
17737.0,1.2
17739.0,1.2
17741.0,1.19
17743.0,1.15
17745.0,1.17
17747.0,1.36
17749.0,1.47
17751.0,1.51
17753.0,1.4
17755.0,1.14
17757.0,0.95
17759.0,0.95
17761.0,0.87
17762.0,1.17
17764.0,1.34
17766.0,1.54
17768.0,1.68
17770.0,1.52
17772.0,1.36
17774.0,1.11
17777.0,1.08
17779.0,1.14
17781.0,1.08
17783.0,1.24
17785.0,1.47
17787.0,1.56
17789.0,1.6
17791.0,1.46
17793.0,1.39
17795.0,1.13
17797.0,1.17
17799.0,1.16
17801.0,1.07
17803.0,1.2
17805.0,1.19
17806.0,1.19
17808.0,1.54
17810.0,1.65
17812.0,1.72
17814.0,1.48
17816.0,1.54
17818.0,1.53
17821.0,1.68
17823.0,1.63
17825.0,1.54
17827.0,1.61
17829.0,1.96
17831.0,1.94
17833.0,1.96
17835.0,1.8
17837.0,1.82
17839.0,1.64
17841.0,1.54
17843.0,1.45
17845.0,1.63
17847.0,1.83
17848.0,2.01
17850.0,1.96
17852.0,1.75
17854.0,1.46
17856.0,1.52
17858.0,1.27
17860.0,1.21
17863.0,1.35
17865.0,1.41
17867.0,1.63
17869.0,1.65
17871.0,1.47
17873.0,1.27
17875.0,0.95
17877.0,1.05
17879.0,1.14
17881.0,1.17
17883.0,1.47
17885.0,1.62
17887.0,1.89
17889.0,1.87
17890.0,1.67
17892.0,1.47
17894.0,1.3
17896.0,1.3
17898.0,1.41
17900.0,1.51
17902.0,1.48
17905.0,1.34
17907.0,1.33
17909.0,1.35
17911.0,1.15
17913.0,1.26
17915.0,1.32
17917.0,1.29
17919.0,1.24
17921.0,1.31
17923.0,1.47
17925.0,1.51
17927.0,1.69
17929.0,1.66
17931.0,1.74
17933.0,1.61
17934.0,1.2
17936.0,1.27
17938.0,1.24
17940.0,1.22
17942.0,1.3
17944.0,1.35
17946.0,1.63
17949.0,1.68
17951.0,1.71
17953.0,1.37
17955.0,1.16
17957.0,1.27
17959.0,1.03
17961.0,1.32
17963.0,1.48
17965.0,1.64
17967.0,1.82
17969.0,2.04
17971.0,1.68
17973.0,1.6
17975.0,1.24
17976.0,1.27
17978.0,1.35
17980.0,1.49
17982.0,1.56
17984.0,1.51
17986.0,1.58
17988.0,1.72
17991.0,1.57
17993.0,1.62
17995.0,1.55
17997.0,1.54
17999.0,1.38
18001.0,1.57
18003.0,1.82
18005.0,2.17
18007.0,2.37
18009.0,2.57
18011.0,2.05
18013.0,2.02
18015.0,1.47
18017.0,1.26
18018.0,1.27
18020.0,1.44
18022.0,1.53
18024.0,1.81
18026.0,1.86
18028.0,2.12
18030.0,1.93
18033.0,2.2
18035.0,2.21
18037.0,2.54
18039.0,2.59
18041.0,2.4
18043.0,2.56
18045.0,2.27
18047.0,1.86
18049.0,1.65
18051.0,1.35
18053.0,1.06
18055.0,0.58
18057.0,0.52
18059.0,0.41
18061.0,0.58
18062.0,0.59
18064.0,0.47
18066.0,0.52
18068.0,0.63
18070.0,0.42
18072.0,0.36
18074.0,0.35
18077.0,0.91
18079.0,0.91
18081.0,0.96
18083.0,1.21
18085.0,1.22
18087.0,1.4
18089.0,1.34
18091.0,1.25
18093.0,0.94
18095.0,0.73
18097.0,0.82
18099.0,0.84
18101.0,0.99
18103.0,1.16
18104.0,1.2
18106.0,1.24
18108.0,1.2
18110.0,1.06
18112.0,0.93
18114.0,0.75
18116.0,0.83
18119.0,1.24
18121.0,1.37
18123.0,1.4
18125.0,1.44
18127.0,1.59
18129.0,1.71
18131.0,1.7
18133.0,1.32
18135.0,0.17
18137.0,0.11
18139.0,0.0
18141.0,0.0
18143.0,0.0
18145.0,0.0
18146.0,0.0
18148.0,0.2
18150.0,0.09
18152.0,0.0
18154.0,0.0
18156.0,0.0
18158.0,0.0
18161.0,0.0
18163.0,0.28
18165.0,0.48
18167.0,0.65
18169.0,0.91
18171.0,0.84
18173.0,0.54
18175.0,0.32
18177.0,0.71
18179.0,0.64
18181.0,0.96
18183.0,1.19
18185.0,1.36
18187.0,1.47
18189.0,1.6
18190.0,1.43
18192.0,1.43
18194.0,1.41
18196.0,1.58
18198.0,1.54
18200.0,1.59
18202.0,1.64
18205.0,1.75
18207.0,1.83
18209.0,1.95
18211.0,1.83
18213.0,1.93
18215.0,1.9
18217.0,1.95
18219.0,2.07
18221.0,2.0
18223.0,1.96
18225.0,2.17
18227.0,2.13
18229.0,2.32
18231.0,2.18
18232.0,1.82
18234.0,1.53
18236.0,1.54
18238.0,1.53
18240.0,1.77
18242.0,1.93
18244.0,1.94
18247.0,2.47
18249.0,2.35
18251.0,2.32
18253.0,2.06
18255.0,1.48
18257.0,1.76
18259.0,1.61
18261.0,1.97
18263.0,2.0
18265.0,2.06
18267.0,2.21
18269.0,2.35
18271.0,2.0
18273.0,1.73
18274.0,1.57
18276.0,1.19
18278.0,1.1
18280.0,1.13
18282.0,1.39
18284.0,1.35
18286.0,1.49
18289.0,1.35
18291.0,1.37
18293.0,1.09
18295.0,0.65
18297.0,0.43
18299.0,0.83
18301.0,0.71
18303.0,0.88
18305.0,1.04
18307.0,0.0
18309.0,0.0
18311.0,0.0
18313.0,0.0
18315.0,0.0
18317.0,0.0
18318.0,0.0
18320.0,0.0
18322.0,0.0
18324.0,0.0
18326.0,0.23
18328.0,0.3
18330.0,0.31
18333.0,0.46
18335.0,0.21
18337.0,0.23
18339.0,0.39
18341.0,0.59
18343.0,0.89
18345.0,1.92
18347.0,3.3
18349.0,3.3
18351.0,3.3
18353.0,3.3
18355.0,3.3
18357.0,3.14
18359.0,2.95
18360.0,2.79
18362.0,2.85
18364.0,3.06
18366.0,3.04
18368.0,3.24
18370.0,3.05
18372.0,2.9
18375.0,2.66
18377.0,2.71
18379.0,2.61
18381.0,2.64
18383.0,2.58
18385.0,2.62
18387.0,2.77
18389.0,2.75
18391.0,2.45
18393.0,2.28
18395.0,2.05
18397.0,2.12
18399.0,2.25
18401.0,2.43
18402.0,2.46
18404.0,2.39
18406.0,2.4
18408.0,2.45
18410.0,2.36
18412.0,2.3
18414.0,2.16
18417.0,2.06
18419.0,2.01
18421.0,1.88
18423.0,3.3
18425.0,3.3
18427.0,3.3
18429.0,3.3
18431.0,3.3
18433.0,3.3
18435.0,3.3
18437.0,3.3
18439.0,3.3
18441.0,3.3
18443.0,3.3
18445.0,3.3
18446.0,3.3
18448.0,3.3
18450.0,3.3
18452.0,3.3
18454.0,2.96
18456.0,2.73
18458.0,2.48
18461.0,2.52
18463.0,2.73
18465.0,2.54
18467.0,2.36
18469.0,2.32
18471.0,2.01
18473.0,1.84
18475.0,1.66
18477.0,1.38
18479.0,1.25
18481.0,1.12
18483.0,1.07
18485.0,1.17
18487.0,1.27
18488.0,1.18
18490.0,0.98
18492.0,0.73
18494.0,0.51
18496.0,0.67
18498.0,0.85
18500.0,0.83
18503.0,0.75
18505.0,0.87
18507.0,0.95
18509.0,0.81
18511.0,0.92
18513.0,0.73
18515.0,0.53
18517.0,0.49
18519.0,0.38
18521.0,0.29
18523.0,0.21
18525.0,0.24
18527.0,0.54
18529.0,0.77
18530.0,0.75
18532.0,0.71
18534.0,0.57
18536.0,0.59
18538.0,0.41
18540.0,0.24
18542.0,0.02
18545.0,0.35
18547.0,0.42
18549.0,0.62
18551.0,0.32
18553.0,0.25
18555.0,0.22
18557.0,0.26
18559.0,0.3
18561.0,0.5
18563.0,0.71
18565.0,0.89
18567.0,1.16
18569.0,1.29
18571.0,1.23
18573.0,1.08
18574.0,1.24
18576.0,1.52
18578.0,1.66
18580.0,1.72
18582.0,1.84
18584.0,1.97
18586.0,1.95
18589.0,1.75
18591.0,1.76
18593.0,1.65
18595.0,1.56
18597.0,1.59
18599.0,1.57
18601.0,1.51
18603.0,1.42
18605.0,1.62
18607.0,1.72
18609.0,1.39
18611.0,0.95
18613.0,0.68
18615.0,0.56
18616.0,0.58
18618.0,0.56
18620.0,0.36
18622.0,0.32
18624.0,0.65
18626.0,0.93
18628.0,1.17
18631.0,1.31
18633.0,1.28
18635.0,1.08
18637.0,0.73
18639.0,0.51
18641.0,0.49
18643.0,0.69
18645.0,0.85
18647.0,1.24
18649.0,1.24
18651.0,1.2
18653.0,1.16
18655.0,1.04
18657.0,1.16
18658.0,1.15
18660.0,1.31
18662.0,1.36
18664.0,1.55
18666.0,1.79
18668.0,1.8
18670.0,1.56
18673.0,1.29
18675.0,1.04
18677.0,1.2
18679.0,1.34
18681.0,1.34
18683.0,1.6
18685.0,1.73
18687.0,1.84
18689.0,1.79
18691.0,2.0
18693.0,1.76
18695.0,1.62
18697.0,1.32
18699.0,1.55
18701.0,1.44
18702.0,1.58
18704.0,1.91
18706.0,2.33
18708.0,2.08
18710.0,1.9
18712.0,1.8
18714.0,1.32
18717.0,1.17
18719.0,1.11
18721.0,1.3
18723.0,1.64
18725.0,1.8
18727.0,2.18
18729.0,2.56
18731.0,2.53
18733.0,2.15
18735.0,1.74
18737.0,1.73
18739.0,1.65
18741.0,1.56
18743.0,1.63
18744.0,1.97
18746.0,2.18
18748.0,1.93
18750.0,1.74
18752.0,1.72
18754.0,1.4
18756.0,1.11
18759.0,1.15
18761.0,1.37
18763.0,1.45
18765.0,1.47
18767.0,1.74
18769.0,1.88
18771.0,1.61
18773.0,1.3
18775.0,1.09
18777.0,1.26
18779.0,1.41
18781.0,1.44
18783.0,1.49
18785.0,1.55
18786.0,1.77
18788.0,1.64
18790.0,1.61
18792.0,1.45
18794.0,1.42
18796.0,1.49
18798.0,1.5
18801.0,1.45
18803.0,1.57
18805.0,1.64
18807.0,1.84
18809.0,1.85
18811.0,1.7
18813.0,1.66
18815.0,1.63
18817.0,1.75
18819.0,1.65
18821.0,1.49
18823.0,1.34
18825.0,1.62
18827.0,1.82
18829.0,2.18
18830.0,2.1
18832.0,1.93
18834.0,1.78
18836.0,1.63
18838.0,1.54
18840.0,1.28
18842.0,1.44
18845.0,1.51
18847.0,1.74
18849.0,1.85
18851.0,1.66
18853.0,1.37
18855.0,1.31
18857.0,1.34
18859.0,1.37
18861.0,1.6
18863.0,1.56
18865.0,1.89
18867.0,2.45
18869.0,2.63
18871.0,2.19
18872.0,1.62
18874.0,1.25
18876.0,1.04
18878.0,0.88
18880.0,0.9
18882.0,0.89
18884.0,1.1
18887.0,1.36
18889.0,1.29
18891.0,1.08
18893.0,0.83
18895.0,0.66
18897.0,0.75
18899.0,0.65
18901.0,0.98
18903.0,0.86
18905.0,0.92
18907.0,1.11
18909.0,1.15
18911.0,1.03
18913.0,1.08
18914.0,1.13
18916.0,1.13
18918.0,1.07
18920.0,1.04
18922.0,1.23
18924.0,1.68
18926.0,1.9
18929.0,2.07
18931.0,1.7
18933.0,1.52
18935.0,1.34
18937.0,1.46
18939.0,1.28
18941.0,1.38
18943.0,1.68
18945.0,1.97
18947.0,2.51
18949.0,2.53
18951.0,2.37
18953.0,2.12
18955.0,1.52
18957.0,1.52
18958.0,1.66
18960.0,1.52
18962.0,1.88
18964.0,2.13
18966.0,2.33
18968.0,2.25
18970.0,1.79
18973.0,1.57
18975.0,1.71
18977.0,1.73
18979.0,1.79
18981.0,2.23
18983.0,2.33
18985.0,2.16
18987.0,2.24
18989.0,2.19
18991.0,1.89
18993.0,1.7
18995.0,1.7
18997.0,1.55
18999.0,1.52
19000.0,1.45
19002.0,1.73
19004.0,1.55
19006.0,1.84
19008.0,1.55
19010.0,1.76
19012.0,1.53
19015.0,1.4
19017.0,1.25
19019.0,1.0
19021.0,1.2
19023.0,1.52
19025.0,1.71
19027.0,1.69
19029.0,1.65
19031.0,1.7
19033.0,1.54
19035.0,1.33
19037.0,1.14
19039.0,1.13
19041.0,1.11
19042.0,1.19
19044.0,1.09
19046.0,1.68
19048.0,1.8
19050.0,1.89
19052.0,1.58
19054.0,1.33
19057.0,1.25
19059.0,1.39
19061.0,1.78
19063.0,1.73
19065.0,1.82
19067.0,2.02
19069.0,1.76
19071.0,1.56
19073.0,1.03
19075.0,0.94
19077.0,0.97
19079.0,1.35
19081.0,1.24
19083.0,1.06
19085.0,1.67
19086.0,1.96
19088.0,1.45
19090.0,1.29
19092.0,1.13
19094.0,0.89
19096.0,1.26
19098.0,1.06
19101.0,1.01
19103.0,0.81
19105.0,0.86
19107.0,0.89
19109.0,0.95
19111.0,0.87
19113.0,0.59
19115.0,0.36
19117.0,0.0
19119.0,0.0
19121.0,0.14
19123.0,0.11
19125.0,0.19
19127.0,0.08
19128.0,0.02
19130.0,0.2
19132.0,0.0
19134.0,0.0
19136.0,0.0
19138.0,0.0
19140.0,0.04
19143.0,0.35
19145.0,0.42
19147.0,0.57
19149.0,0.66
19151.0,0.45
19153.0,0.03
19155.0,0.0
19157.0,0.0
19159.0,0.0
19161.0,0.05
19163.0,0.2
19165.0,0.48
19167.0,0.83
19169.0,0.69
19170.0,0.59
19172.0,0.48
19174.0,0.63
19176.0,0.68
19178.0,0.91
19180.0,0.96
19182.0,1.05
19185.0,1.06
19187.0,1.31
19189.0,1.34
19191.0,1.05
19193.0,0.64
19195.0,0.65
19197.0,0.8
19199.0,0.9
19201.0,1.08
19203.0,1.4
19205.0,1.46
19207.0,1.38
19209.0,0.98
19211.0,1.46
19213.0,1.01
19214.0,1.02
19216.0,0.93
19218.0,0.94
19220.0,0.72
19222.0,0.92
19224.0,1.11
19226.0,1.05
19229.0,1.49
19231.0,1.58
19233.0,1.16
19235.0,0.83
19237.0,0.52
19239.0,0.25
19241.0,0.31
19243.0,0.27
19245.0,0.0
19247.0,0.0
19249.0,0.0
19251.0,0.0
19253.0,0.0
19255.0,0.0
19256.0,0.0
19258.0,0.0
19260.0,0.0
19262.0,0.0
19264.0,0.0
19266.0,0.0
19268.0,0.0
19271.0,0.0
19273.0,0.0
19275.0,0.0
19277.0,0.0
19279.0,0.01
19281.0,0.09
19283.0,0.28
19285.0,0.64
19287.0,0.77
19289.0,0.87
19291.0,0.85
19293.0,0.7
19295.0,0.92
19297.0,0.78
19298.0,1.3
19300.0,1.43
19302.0,1.42
19304.0,1.51
19306.0,1.77
19308.0,1.71
19310.0,1.68
19313.0,1.43
19315.0,1.47
19317.0,1.58
19319.0,1.58
19321.0,1.56
19323.0,1.68
19325.0,1.95
19327.0,2.04
19329.0,1.99
19331.0,2.05
19333.0,1.66
19335.0,1.58
19337.0,1.69
19339.0,1.28
19341.0,1.24
19342.0,1.8
19344.0,1.94
19346.0,2.15
19348.0,2.05
19350.0,2.01
19352.0,1.63
19354.0,1.64
19357.0,1.47
19359.0,1.62
19361.0,1.55
19363.0,1.98
19365.0,2.07
19367.0,2.16
19369.0,2.15
19371.0,1.77
19373.0,1.36
19375.0,1.41
19377.0,1.27
19379.0,1.49
19381.0,1.59
19383.0,1.69
19384.0,1.82
19386.0,1.9
19388.0,1.83
19390.0,1.89
19392.0,1.83
19394.0,1.73
19396.0,1.85
19399.0,1.91
19401.0,1.73
19403.0,1.83
19405.0,2.0
19407.0,2.16
19409.0,2.0
19411.0,1.92
19413.0,1.85
19415.0,1.79
19417.0,1.93
19419.0,1.73
19421.0,1.72
19423.0,1.97
19425.0,2.21
19426.0,2.27
19428.0,2.6
19430.0,2.48
19432.0,2.17
19434.0,2.1
19436.0,1.99
19438.0,2.06
19441.0,2.01
19443.0,2.35
19445.0,2.66
19447.0,2.84
19449.0,2.56
19451.0,2.69
19453.0,2.36
19455.0,2.45
19457.0,2.63
19459.0,2.78
19461.0,3.05
19463.0,3.17
19465.0,3.29
19467.0,3.3
19469.0,3.29
19470.0,3.12
19472.0,2.96
19474.0,2.97
19476.0,3.11
19478.0,3.3
19480.0,3.3
19482.0,3.29
19485.0,3.3
19487.0,3.3
19489.0,3.23
19491.0,3.09
19493.0,2.84
19495.0,2.82
19497.0,2.88
19499.0,2.77
19501.0,2.71
19503.0,2.87
19505.0,2.89
19507.0,2.95
19509.0,3.02
19511.0,2.83
19512.0,2.6
19514.0,2.92
19516.0,3.08
19518.0,3.06
19520.0,3.21
19522.0,3.3
19524.0,3.3
19527.0,3.3
19529.0,3.3
19531.0,3.3
19533.0,3.3
19535.0,3.3
19537.0,3.3
19539.0,3.3
19541.0,3.3
19543.0,3.3
19545.0,3.3
19547.0,3.3
19549.0,3.3
19551.0,3.3
19553.0,3.3
19554.0,3.3
19556.0,3.3
19558.0,3.3
19560.0,3.3
19562.0,3.3
19564.0,3.3
19566.0,3.3
19569.0,3.3
19571.0,3.3
19573.0,3.3
19575.0,3.3
19577.0,3.3
19579.0,3.3
19581.0,3.3
19583.0,3.3
19585.0,3.3
19587.0,3.3
19589.0,3.3
19591.0,3.27
19593.0,2.82
19595.0,2.66
19597.0,2.62
19598.0,2.45
19600.0,2.43
19602.0,2.43
19604.0,2.59
19606.0,2.45
19608.0,2.39
19610.0,2.38
19613.0,1.99
19615.0,1.83
19617.0,1.8
19619.0,1.67
19621.0,1.24
19623.0,1.5
19625.0,1.61
19627.0,1.6
19629.0,1.55
19631.0,1.39
19633.0,1.04
19635.0,0.77
19637.0,0.64
19639.0,0.51
19640.0,0.53
19642.0,0.57
19644.0,0.77
19646.0,0.81
19648.0,0.68
19650.0,0.49
19652.0,0.23
19655.0,0.31
19657.0,0.59
19659.0,0.68
19661.0,0.81
19663.0,0.84
19665.0,0.85
19667.0,0.99
19669.0,0.76
19671.0,0.43
19673.0,0.32
19675.0,0.34
19677.0,0.34
19679.0,0.36
19681.0,0.46
19682.0,0.57
19684.0,0.75
19686.0,0.81
19688.0,0.6
19690.0,0.57
19692.0,0.34
19694.0,0.34
19697.0,0.43
19699.0,0.46
19701.0,0.45
19703.0,0.49
19705.0,0.59
19707.0,0.75
19709.0,0.8
19711.0,0.73
19713.0,0.5
19715.0,0.45
19717.0,0.22
19719.0,0.52
19721.0,0.57
19723.0,0.77
19725.0,0.77
19726.0,0.88
19728.0,0.95
19730.0,1.18
19732.0,0.81
19734.0,0.71
19736.0,0.61
19738.0,0.63
19741.0,0.95
19743.0,1.34
19745.0,1.56
19747.0,1.57
19749.0,1.47
