time,ch1
1.0,1.37
3.0,1.39
5.0,1.43
7.0,1.39
9.0,1.51
11.0,1.63
13.0,1.59
15.0,1.54
17.0,1.44
19.0,1.42
21.0,1.4
23.0,1.4
25.0,1.41
27.0,1.36
29.0,1.4
31.0,1.5
33.0,1.54
35.0,1.44
37.0,1.23
39.0,1.25
41.0,1.27
44.0,1.26
46.0,1.3
48.0,1.28
49.0,1.42
51.0,1.52
53.0,1.53
55.0,1.48
57.0,1.37
59.0,1.39
61.0,1.4
63.0,1.39
65.0,1.39
67.0,1.38
69.0,1.52
71.0,1.63
73.0,1.64
75.0,1.55
77.0,1.44
79.0,1.47
81.0,1.46
83.0,1.48
86.0,1.52
88.0,1.52
90.0,1.61
92.0,1.64
94.0,1.6
96.0,1.54
97.0,1.43
99.0,1.45
101.0,1.43
103.0,1.43
105.0,1.44
107.0,1.4
109.0,1.52
111.0,1.55
113.0,1.53
115.0,1.45
117.0,1.35
119.0,1.37
121.0,1.41
123.0,1.43
125.0,1.44
128.0,1.41
130.0,1.54
132.0,1.61
134.0,1.62
136.0,1.56
138.0,1.45
139.0,1.48
141.0,1.52
143.0,1.52
145.0,1.53
147.0,1.53
149.0,1.6
151.0,1.69
153.0,1.66
155.0,1.59
157.0,1.44
159.0,1.46
161.0,1.46
163.0,1.48
165.0,1.46
167.0,1.45
169.0,1.54
172.0,1.64
174.0,1.65
176.0,1.62
178.0,1.49
180.0,1.52
182.0,1.53
183.0,1.55
185.0,1.55
187.0,1.53
189.0,1.63
191.0,1.7
193.0,1.66
195.0,1.6
197.0,1.48
199.0,1.5
201.0,1.52
203.0,1.54
205.0,1.51
207.0,1.5
209.0,1.61
211.0,1.65
214.0,1.65
216.0,1.58
218.0,1.41
220.0,1.38
222.0,1.37
224.0,1.37
225.0,1.35
227.0,1.32
229.0,1.42
231.0,1.48
233.0,1.48
235.0,1.41
237.0,1.31
239.0,1.33
241.0,1.31
243.0,1.3
245.0,1.32
247.0,1.33
249.0,1.43
251.0,1.53
253.0,1.56
256.0,1.48
258.0,1.37
260.0,1.37
262.0,1.36
264.0,1.36
266.0,1.38
268.0,1.36
269.0,1.48
271.0,1.52
273.0,1.51
275.0,1.48
277.0,1.4
279.0,1.43
281.0,1.44
283.0,1.45
285.0,1.45
287.0,1.46
289.0,1.57
291.0,1.6
293.0,1.6
295.0,1.53
297.0,1.39
300.0,1.44
302.0,1.44
304.0,1.47
306.0,1.46
308.0,1.46
310.0,1.56
311.0,1.61
313.0,1.59
315.0,1.55
317.0,1.4
319.0,1.43
321.0,1.45
323.0,1.46
325.0,1.47
327.0,1.49
329.0,1.57
331.0,1.63
333.0,1.61
335.0,1.54
337.0,1.41
339.0,1.41
342.0,1.4
344.0,1.42
346.0,1.44
348.0,1.45
350.0,1.55
352.0,1.59
353.0,1.57
355.0,1.55
357.0,1.39
359.0,1.43
361.0,1.42
363.0,1.39
365.0,1.38
367.0,1.39
369.0,1.56
371.0,1.61
373.0,1.52
375.0,1.31
377.0,1.13
379.0,1.1
381.0,1.08
384.0,1.1
386.0,1.14
388.0,1.17
390.0,1.3
392.0,1.34
394.0,1.35
396.0,1.3
397.0,1.21
399.0,1.23
401.0,1.26
403.0,1.3
405.0,1.31
407.0,1.35
409.0,1.47
411.0,1.52
413.0,1.54
415.0,1.45
417.0,1.29
419.0,1.28
421.0,1.33
423.0,1.35
425.0,1.36
428.0,1.38
430.0,1.52
432.0,1.58
434.0,1.57
436.0,1.47
438.0,1.34
439.0,1.36
441.0,1.35
443.0,1.36
445.0,1.36
447.0,1.38
449.0,1.52
451.0,1.57
453.0,1.56
455.0,1.47
457.0,1.35
459.0,1.38
461.0,1.38
463.0,1.39
465.0,1.37
467.0,1.36
470.0,1.49
472.0,1.56
474.0,1.54
476.0,1.46
478.0,1.38
480.0,1.39
481.0,1.35
483.0,1.34
485.0,1.32
487.0,1.33
489.0,1.51
491.0,1.58
493.0,1.58
495.0,1.55
497.0,1.46
499.0,1.52
501.0,1.5
503.0,1.53
505.0,1.52
507.0,1.53
509.0,1.65
512.0,1.74
514.0,1.73
516.0,1.67
518.0,1.55
520.0,1.57
522.0,1.56
524.0,1.59
525.0,1.55
527.0,1.53
529.0,1.62
531.0,1.69
533.0,1.67
535.0,1.58
537.0,1.46
539.0,1.47
541.0,1.48
543.0,1.49
545.0,1.51
547.0,1.48
549.0,1.59
551.0,1.68
553.0,1.68
556.0,1.59
558.0,1.47
560.0,1.51
562.0,1.54
564.0,1.55
566.0,1.57
567.0,1.55
569.0,1.66
571.0,1.72
573.0,1.71
575.0,1.64
577.0,1.52
579.0,1.51
581.0,1.51
583.0,1.53
585.0,1.52
587.0,1.52
589.0,1.64
591.0,1.69
593.0,1.68
595.0,1.58
598.0,1.46
600.0,1.45
602.0,1.41
604.0,1.41
606.0,1.4
608.0,1.42
609.0,1.55
611.0,1.57
613.0,1.49
615.0,1.35
617.0,1.25
619.0,1.26
621.0,1.31
623.0,1.36
625.0,1.38
627.0,1.37
629.0,1.45
631.0,1.51
633.0,1.55
635.0,1.47
637.0,1.35
640.0,1.38
642.0,1.39
644.0,1.44
646.0,1.48
648.0,1.45
650.0,1.55
652.0,1.62
653.0,1.59
655.0,1.52
657.0,1.4
659.0,1.45
661.0,1.48
663.0,1.49
665.0,1.48
667.0,1.49
669.0,1.58
671.0,1.64
673.0,1.65
675.0,1.63
677.0,1.52
679.0,1.53
681.0,1.52
684.0,1.56
686.0,1.55
688.0,1.51
690.0,1.59
692.0,1.63
694.0,1.6
695.0,1.55
697.0,1.45
699.0,1.47
701.0,1.48
703.0,1.51
705.0,1.47
707.0,1.5
709.0,1.61
711.0,1.66
713.0,1.64
715.0,1.55
717.0,1.41
719.0,1.46
721.0,1.46
723.0,1.48
726.0,1.5
728.0,1.51
730.0,1.62
732.0,1.69
734.0,1.67
736.0,1.56
737.0,1.44
739.0,1.42
741.0,1.4
743.0,1.43
745.0,1.45
747.0,1.45
749.0,1.56
751.0,1.6
753.0,1.55
755.0,1.47
757.0,1.38
759.0,1.42
761.0,1.42
763.0,1.41
765.0,1.42
768.0,1.45
770.0,1.58
772.0,1.64
774.0,1.61
776.0,1.5
778.0,1.35
780.0,1.34
781.0,1.35
783.0,1.36
785.0,1.38
787.0,1.42
789.0,1.57
791.0,1.58
793.0,1.58
795.0,1.53
797.0,1.44
799.0,1.43
801.0,1.41
803.0,1.45
805.0,1.46
807.0,1.49
809.0,1.6
812.0,1.65
814.0,1.62
816.0,1.53
818.0,1.41
820.0,1.45
822.0,1.47
823.0,1.47
825.0,1.48
827.0,1.48
829.0,1.59
831.0,1.64
833.0,1.62
835.0,1.53
837.0,1.41
839.0,1.4
841.0,1.39
843.0,1.42
845.0,1.41
847.0,1.4
849.0,1.49
851.0,1.55
854.0,1.55
856.0,1.47
858.0,1.37
860.0,1.37
862.0,1.41
864.0,1.41
865.0,1.41
867.0,1.4
869.0,1.51
871.0,1.55
873.0,1.55
875.0,1.52
877.0,1.43
879.0,1.43
881.0,1.4
883.0,1.42
885.0,1.4
887.0,1.41
889.0,1.57
891.0,1.62
893.0,1.59
896.0,1.5
898.0,1.36
900.0,1.36
902.0,1.36
904.0,1.36
906.0,1.39
908.0,1.41
909.0,1.54
911.0,1.59
913.0,1.56
915.0,1.46
917.0,1.36
919.0,1.38
921.0,1.4
923.0,1.38
925.0,1.38
927.0,1.41
929.0,1.56
931.0,1.61
933.0,1.58
935.0,1.52
937.0,1.43
940.0,1.45
942.0,1.46
944.0,1.46
946.0,1.43
948.0,1.45
950.0,1.59
951.0,1.66
953.0,1.65
955.0,1.52
957.0,1.41
959.0,1.41
961.0,1.41
963.0,1.41
965.0,1.43
967.0,1.42
969.0,1.48
971.0,1.52
973.0,1.52
975.0,1.44
977.0,1.33
979.0,1.39
982.0,1.43
984.0,1.42
986.0,1.42
988.0,1.44
990.0,1.54
992.0,1.57
993.0,1.54
995.0,1.4
997.0,1.3
999.0,1.37
1001.0,1.37
1003.0,1.35
1005.0,1.34
1007.0,1.32
1009.0,1.44
1011.0,1.48
1013.0,1.47
1015.0,1.4
1017.0,1.29
1019.0,1.3
1021.0,1.31
1024.0,1.37
1026.0,1.36
1028.0,1.37
1030.0,1.49
1032.0,1.55
1034.0,1.56
1036.0,1.5
1037.0,1.36
1039.0,1.38
1041.0,1.42
1043.0,1.45
1045.0,1.41
1047.0,1.38
1049.0,1.53
1051.0,1.61
1053.0,1.59
1055.0,1.55
1057.0,1.45
1059.0,1.46
1061.0,1.47
1063.0,1.49
1065.0,1.47
1068.0,1.46
1070.0,1.58
1072.0,1.62
1074.0,1.6
1076.0,1.47
1078.0,1.34
1079.0,1.38
1081.0,1.36
1083.0,1.39
1085.0,1.37
1087.0,1.41
1089.0,1.53
1091.0,1.58
1093.0,1.57
1095.0,1.48
1097.0,1.38
1099.0,1.4
1101.0,1.45
1103.0,1.54
1105.0,1.56
1107.0,1.54
1110.0,1.69
1112.0,1.71
1114.0,1.67
1116.0,1.59
1118.0,1.46
1120.0,1.52
1122.0,1.51
1123.0,1.55
1125.0,1.55
1127.0,1.55
1129.0,1.64
1131.0,1.65
1133.0,1.65
1135.0,1.55
1137.0,1.43
1139.0,1.47
1141.0,1.45
1143.0,1.49
1145.0,1.48
1147.0,1.47
1149.0,1.62
1152.0,1.68
1154.0,1.64
1156.0,1.53
1158.0,1.43
1160.0,1.47
1162.0,1.48
1164.0,1.5
1165.0,1.52
1167.0,1.5
1169.0,1.63
1171.0,1.65
1173.0,1.6
1175.0,1.49
1177.0,1.4
1179.0,1.42
1181.0,1.42
1183.0,1.41
1185.0,1.43
1187.0,1.45
1189.0,1.54
1191.0,1.58
1193.0,1.56
1196.0,1.48
1198.0,1.36
1200.0,1.36
1202.0,1.37
1204.0,1.44
1206.0,1.4
1208.0,1.36
1209.0,1.52
1211.0,1.55
1213.0,1.55
1215.0,1.44
1217.0,1.34
1219.0,1.38
1221.0,1.36
1223.0,1.38
1225.0,1.33
1227.0,1.3
1229.0,1.41
1231.0,1.47
1233.0,1.45
1235.0,1.37
1238.0,1.31
1240.0,1.42
1242.0,1.35
1244.0,1.38
1246.0,1.41
1248.0,1.42
1250.0,1.54
1251.0,1.49
1253.0,1.46
1255.0,1.43
1257.0,1.34
1259.0,1.34
1261.0,1.45
1263.0,1.5
1265.0,1.48
1267.0,1.5
1269.0,1.62
1271.0,1.66
1273.0,1.6
1275.0,1.46
1277.0,1.4
1280.0,1.49
1282.0,1.48
1284.0,1.47
1286.0,1.47
1288.0,1.48
1290.0,1.63
1292.0,1.63
1294.0,1.56
1295.0,1.41
1297.0,1.3
1299.0,1.41
1301.0,1.45
1303.0,1.4
1305.0,1.34
1307.0,1.36
1309.0,1.51
1311.0,1.55
1313.0,1.65
1315.0,1.53
1317.0,1.33
1319.0,1.3
1321.0,1.26
1324.0,1.32
1326.0,1.34
1328.0,1.35
1330.0,1.43
1332.0,1.49
1334.0,1.45
1336.0,1.33
1337.0,1.23
1339.0,1.17
1341.0,1.18
1343.0,1.36
1345.0,1.49
1347.0,1.56
1349.0,1.67
1351.0,1.75
1353.0,1.71
1355.0,1.6
1357.0,1.5
1359.0,1.55
1361.0,1.5
1363.0,1.53
1366.0,1.57
1368.0,1.59
1370.0,1.67
1372.0,1.72
1374.0,1.67
1376.0,1.28
1378.0,1.14
1380.0,1.2
1381.0,1.29
1383.0,1.34
1385.0,1.04
1387.0,0.71
1389.0,1.27
1391.0,1.55
1393.0,1.55
1395.0,1.35
1397.0,1.07
1399.0,1.04
1401.0,1.03
1403.0,1.04
1405.0,0.95
1408.0,0.79
1410.0,0.77
1412.0,0.9
1414.0,0.88
1416.0,0.76
1418.0,0.84
1420.0,0.62
1422.0,0.34
1423.0,0.0
1425.0,0.0
1427.0,0.0
1429.0,0.1
1431.0,0.3
1433.0,0.32
1435.0,0.04
1437.0,0.0
1439.0,0.15
1441.0,0.24
1443.0,0.32
1445.0,0.36
1447.0,0.24
1449.0,0.21
1452.0,0.23
1454.0,0.26
1456.0,0.0
1458.0,0.0
1460.0,0.0
1462.0,0.12
1464.0,0.21
1466.0,0.24
1467.0,0.35
1469.0,0.53
1471.0,0.5
1473.0,0.48
1475.0,0.62
1477.0,0.55
1479.0,0.75
1481.0,0.77
1483.0,0.9
1485.0,0.96
1487.0,0.98
1489.0,1.07
1491.0,1.08
1494.0,1.36
1496.0,1.28
1498.0,1.05
1500.0,0.9
1502.0,0.98
1504.0,1.51
1506.0,1.59
1508.0,1.44
1509.0,1.76
1511.0,1.81
1513.0,1.79
1515.0,1.77
1517.0,1.73
1519.0,1.79
1521.0,1.74
1523.0,1.62
1525.0,1.64
1527.0,1.67
1529.0,1.92
1531.0,1.8
1533.0,1.66
1536.0,1.65
1538.0,1.71
1540.0,1.53
1542.0,1.57
1544.0,1.9
1546.0,1.66
1548.0,1.57
1550.0,1.94
1552.0,2.01
1553.0,2.13
1555.0,2.05
1557.0,1.76
1559.0,1.73
1561.0,1.65
1563.0,1.61
1565.0,1.94
1567.0,2.16
1569.0,2.28
1571.0,2.11
1573.0,2.25
1575.0,2.08
1577.0,1.79
1580.0,1.9
1582.0,1.91
1584.0,1.89
1586.0,1.96
1588.0,1.99
1590.0,2.09
1592.0,2.14
1594.0,2.06
1595.0,1.82
1597.0,1.71
1599.0,1.99
1601.0,2.24
1603.0,2.05
1605.0,1.82
1607.0,1.9
1609.0,2.27
1611.0,2.1
1613.0,1.96
1615.0,1.91
1617.0,1.81
1619.0,1.83
1622.0,1.79
1624.0,1.81
1626.0,1.74
1628.0,1.7
1630.0,1.91
1632.0,2.05
1634.0,2.08
1636.0,1.97
1638.0,1.76
1639.0,1.84
1641.0,2.15
1643.0,2.14
1645.0,2.19
1647.0,2.25
1649.0,2.31
1651.0,2.32
1653.0,2.23
1655.0,2.19
1657.0,2.06
1659.0,2.06
1661.0,1.75
1664.0,1.63
1666.0,2.13
1668.0,2.44
1670.0,2.32
1672.0,2.17
1674.0,2.12
1676.0,1.89
1678.0,1.89
1680.0,1.96
1681.0,1.94
1683.0,1.86
1685.0,1.76
1687.0,1.65
1689.0,1.82
1691.0,1.88
1693.0,1.86
1695.0,1.67
1697.0,1.52
1699.0,1.52
1701.0,1.51
1703.0,1.49
1705.0,1.42
1708.0,1.83
1710.0,1.85
1712.0,1.81
1714.0,1.88
1716.0,1.76
1718.0,1.37
1720.0,1.45
1722.0,1.58
1724.0,1.6
1725.0,1.55
1727.0,1.55
1729.0,1.7
1731.0,1.74
1733.0,1.76
1735.0,1.59
1737.0,1.48
1739.0,1.51
1741.0,1.51
1743.0,1.68
1745.0,1.58
1747.0,1.46
1750.0,1.58
1752.0,1.73
1754.0,1.67
1756.0,1.56
1758.0,1.48
1760.0,1.53
1762.0,1.54
1764.0,1.56
1766.0,1.54
1767.0,1.56
1769.0,1.72
1771.0,1.74
1773.0,1.68
1775.0,1.48
1777.0,1.42
1779.0,1.59
1781.0,1.55
1783.0,1.52
1785.0,1.39
1787.0,1.43
1789.0,1.62
1792.0,1.63
1794.0,1.62
1796.0,1.55
1798.0,1.46
1800.0,1.48
1802.0,1.48
1804.0,1.49
1806.0,1.42
1808.0,1.41
1810.0,1.58
1811.0,1.57
1813.0,1.49
1815.0,1.35
1817.0,1.19
1819.0,1.2
1821.0,1.27
1823.0,1.31
1825.0,1.26
1827.0,1.25
1829.0,1.48
1831.0,1.47
1833.0,1.4
1836.0,1.37
1838.0,1.34
1840.0,1.33
1842.0,1.34
1844.0,1.38
1846.0,1.36
1848.0,1.27
1850.0,1.48
1852.0,1.66
1854.0,1.62
1855.0,1.45
1857.0,1.28
1859.0,1.29
1861.0,1.33
1863.0,1.43
1865.0,1.48
1867.0,1.48
1869.0,1.6
1871.0,1.54
1873.0,1.6
1875.0,1.61
1878.0,1.5
1880.0,1.5
1882.0,1.47
1884.0,1.51
1886.0,1.55
1888.0,1.55
1890.0,1.69
1892.0,1.73
1894.0,1.72
1896.0,1.57
1897.0,1.53
1899.0,1.56
1901.0,1.49
1903.0,1.48
1905.0,1.5
1907.0,1.57
1909.0,1.75
1911.0,1.77
1913.0,1.71
1915.0,1.52
1917.0,1.4
1920.0,1.51
1922.0,1.5
1924.0,1.54
1926.0,1.54
1928.0,1.42
1930.0,1.59
1932.0,1.77
1934.0,1.75
1936.0,1.83
1938.0,1.77
1940.0,1.8
1941.0,1.84
1943.0,1.85
1945.0,1.76
1947.0,1.74
1949.0,1.86
1951.0,1.85
1953.0,1.79
1955.0,1.63
1957.0,1.56
1959.0,1.6
1961.0,1.57
1964.0,1.56
1966.0,1.56
1968.0,1.66
1970.0,1.83
1972.0,1.83
1974.0,1.76
1976.0,1.69
1978.0,1.64
1980.0,1.69
1982.0,1.65
1983.0,1.64
1985.0,1.64
1987.0,1.67
1989.0,1.78
1991.0,1.78
1993.0,1.75
1995.0,1.61
1997.0,1.53
1999.0,1.49
2001.0,1.48
2003.0,1.5
2006.0,1.43
2008.0,1.47
2010.0,1.61
2012.0,1.58
2014.0,1.53
2016.0,1.36
2018.0,1.26
2020.0,1.3
2022.0,1.29
2024.0,1.28
2026.0,1.3
2027.0,1.35
2029.0,1.41
2031.0,1.36
2033.0,1.34
2035.0,1.2
2037.0,1.1
2039.0,1.12
2041.0,1.21
2043.0,1.16
2045.0,1.12
2048.0,1.2
2050.0,1.45
2052.0,1.49
2054.0,1.48
2056.0,1.36
2058.0,1.36
2060.0,1.38
2062.0,1.39
2064.0,1.4
2066.0,1.46
2068.0,1.5
2069.0,1.6
2071.0,1.64
2073.0,1.63
2075.0,1.49
2077.0,1.38
2079.0,1.33
2081.0,1.32
2083.0,1.37
2085.0,1.4
2087.0,1.45
2089.0,1.6
2092.0,1.65
2094.0,1.64
2096.0,1.5
2098.0,1.42
2100.0,1.46
2102.0,1.5
2104.0,1.51
2106.0,1.54
2108.0,1.55
2110.0,1.67
2112.0,1.74
2113.0,1.67
2115.0,1.51
2117.0,1.42
2119.0,1.38
2121.0,1.4
2123.0,1.48
2125.0,1.48
2127.0,1.5
2129.0,1.61
2131.0,1.64
2134.0,1.59
2136.0,1.46
2138.0,1.42
2140.0,1.4
2142.0,1.35
2144.0,1.41
2146.0,1.39
2148.0,1.41
2150.0,1.48
2152.0,1.53
2154.0,1.51
2155.0,1.39
2157.0,1.33
2159.0,1.34
2161.0,1.29
2163.0,1.31
2165.0,1.33
2167.0,1.34
2169.0,1.39
2171.0,1.41
2173.0,1.43
2176.0,1.39
2178.0,1.35
2180.0,1.38
2182.0,1.33
2184.0,1.34
2186.0,1.35
2188.0,1.45
2190.0,1.56
2192.0,1.58
2194.0,1.48
2196.0,1.32
2198.0,1.34
2199.0,1.34
2201.0,1.33
2203.0,1.35
2205.0,1.31
2207.0,1.28
2209.0,1.41
2211.0,1.65
2213.0,1.62
2215.0,1.43
2217.0,1.34
2220.0,1.33
2222.0,1.33
2224.0,1.36
2226.0,1.44
2228.0,1.49
2230.0,1.59
2232.0,1.46
2234.0,1.46
2236.0,1.4
2238.0,1.35
2240.0,1.36
2241.0,1.39
2243.0,1.37
2245.0,1.25
2247.0,1.27
2249.0,1.45
2251.0,1.64
2253.0,1.6
2255.0,1.39
2257.0,1.32
2259.0,1.36
2262.0,1.35
2264.0,1.36
2266.0,1.26
2268.0,1.34
2270.0,1.5
2272.0,1.46
2274.0,1.45
2276.0,1.42
2278.0,1.3
2280.0,1.33
2282.0,1.29
2284.0,1.39
2285.0,1.35
2287.0,1.44
2289.0,1.47
2291.0,1.43
2293.0,1.57
2295.0,1.27
2297.0,1.24
2299.0,1.26
2301.0,1.23
2304.0,1.22
2306.0,1.23
2308.0,1.41
2310.0,1.39
2312.0,1.36
2314.0,1.37
2316.0,1.25
2318.0,1.76
2320.0,1.62
2322.0,1.46
2324.0,1.43
2326.0,1.47
2327.0,1.43
2329.0,1.53
2331.0,1.49
2333.0,1.3
2335.0,1.03
2337.0,1.01
2339.0,1.26
2341.0,1.62
2343.0,1.52
2345.0,1.18
2348.0,1.25
2350.0,1.36
2352.0,1.29
2354.0,1.01
2356.0,1.22
2358.0,1.7
2360.0,1.49
2362.0,1.39
2364.0,1.25
2366.0,1.11
2368.0,1.2
2370.0,1.57
2371.0,1.25
2373.0,1.47
2375.0,1.46
2377.0,1.1
2379.0,1.1
2381.0,1.06
2383.0,1.21
2385.0,1.48
2387.0,1.55
2390.0,1.4
2392.0,1.34
2394.0,1.5
2396.0,1.77
2398.0,1.82
2400.0,1.3
2402.0,1.23
2404.0,1.25
2406.0,1.41
2408.0,1.49
2410.0,1.52
2412.0,1.37
2413.0,1.27
2415.0,1.21
2417.0,1.0
2419.0,1.14
2421.0,1.43
2423.0,0.98
2425.0,1.17
2427.0,1.25
2429.0,1.82
2432.0,1.75
2434.0,1.53
2436.0,1.33
2438.0,1.09
2440.0,1.07
2442.0,1.21
2444.0,1.33
2446.0,1.71
2448.0,1.7
2450.0,1.49
2452.0,1.34
2454.0,1.54
2456.0,1.23
2457.0,1.24
2459.0,1.63
2461.0,1.45
2463.0,1.47
2465.0,1.81
2467.0,1.61
2469.0,1.74
2471.0,1.52
2473.0,1.54
2476.0,1.81
2478.0,1.68
2480.0,1.55
2482.0,1.46
2484.0,1.15
2486.0,1.42
2488.0,1.82
2490.0,1.5
2492.0,1.45
2494.0,1.87
2496.0,1.6
2498.0,1.3
2499.0,1.25
2501.0,1.45
2503.0,1.52
2505.0,1.39
2507.0,1.5
2509.0,1.57
2511.0,1.64
2513.0,1.39
2515.0,1.55
2518.0,1.45
2520.0,1.28
2522.0,0.92
2524.0,1.28
2526.0,1.68
2528.0,1.52
2530.0,1.45
2532.0,1.48
2534.0,1.54
2536.0,1.5
2538.0,1.29
2540.0,1.04
2542.0,1.16
2543.0,1.58
2545.0,1.21
2547.0,1.38
2549.0,1.94
2551.0,1.8
2553.0,1.55
2555.0,1.42
2557.0,1.38
2560.0,1.18
2562.0,1.21
2564.0,1.48
2566.0,1.39
2568.0,1.44
2570.0,1.5
2572.0,1.45
2574.0,1.38
2576.0,1.67
2578.0,1.63
2580.0,1.6
2582.0,1.66
2584.0,1.63
2585.0,1.62
2587.0,1.63
2589.0,1.76
2591.0,1.7
2593.0,1.61
2595.0,1.49
2597.0,1.49
2599.0,1.5
2601.0,1.46
2604.0,1.41
2606.0,1.48
2608.0,1.23
2610.0,1.41
2612.0,1.83
2614.0,1.69
2616.0,1.45
2618.0,1.42
2620.0,1.52
2622.0,1.49
2624.0,1.4
2626.0,1.44
2628.0,1.54
2629.0,1.61
2631.0,1.6
2633.0,1.68
2635.0,1.46
2637.0,1.53
2639.0,1.62
2641.0,1.65
2643.0,1.68
2646.0,1.63
2648.0,1.66
2650.0,1.85
2652.0,1.83
2654.0,1.72
2656.0,1.69
2658.0,1.63
2660.0,1.8
2662.0,1.61
2664.0,1.53
2666.0,1.77
2668.0,1.84
2670.0,1.85
2671.0,1.77
2673.0,1.75
2675.0,1.63
2677.0,1.59
2679.0,1.51
2681.0,1.62
2683.0,1.89
2685.0,1.72
2688.0,1.6
2690.0,1.64
2692.0,1.94
2694.0,1.91
2696.0,1.82
2698.0,1.78
2700.0,1.66
2702.0,1.61
2704.0,1.67
2706.0,1.63
2708.0,1.65
2710.0,1.78
2712.0,1.8
2714.0,1.75
2715.0,1.59
2717.0,1.51
2719.0,1.5
2721.0,1.58
2723.0,1.63
2725.0,1.58
2727.0,1.67
2729.0,1.76
2732.0,1.76
2734.0,1.71
2736.0,1.54
2738.0,1.51
2740.0,1.63
2742.0,1.6
2744.0,1.64
2746.0,1.65
2748.0,1.68
2750.0,1.79
2752.0,1.74
2754.0,1.83
2756.0,1.7
2758.0,1.57
2759.0,1.52
2761.0,1.55
2763.0,1.6
2765.0,1.59
2767.0,1.66
2769.0,1.72
2771.0,1.63
2774.0,1.62
2776.0,1.52
2778.0,1.52
2780.0,1.43
2782.0,1.31
2784.0,1.3
2786.0,1.44
2788.0,1.42
2790.0,1.46
2792.0,1.4
2794.0,1.41
2796.0,1.25
2798.0,1.27
2800.0,1.34
2801.0,1.31
2803.0,1.3
2805.0,1.43
2807.0,1.38
2809.0,1.49
2811.0,1.45
2813.0,1.29
2816.0,1.11
2818.0,1.1
2820.0,1.13
2822.0,1.17
2824.0,1.3
2826.0,1.44
2828.0,1.53
2830.0,1.64
2832.0,1.62
2834.0,1.52
2836.0,1.35
2838.0,1.3
2840.0,1.26
2842.0,1.31
2844.0,1.35
2845.0,1.34
2847.0,1.43
2849.0,1.53
2851.0,1.54
2853.0,1.53
2855.0,1.29
2857.0,1.22
2860.0,1.34
2862.0,1.23
2864.0,1.23
2866.0,1.22
2868.0,1.32
2870.0,1.56
2872.0,1.53
2874.0,1.43
2876.0,1.35
2878.0,1.34
2880.0,1.29
2882.0,1.28
2884.0,1.29
2886.0,1.27
2887.0,1.32
2889.0,1.48
2891.0,1.51
2893.0,1.45
2895.0,1.22
2897.0,1.21
2899.0,1.18
2902.0,1.1
2904.0,1.18
2906.0,1.33
2908.0,1.47
2910.0,1.52
2912.0,1.49
2914.0,1.38
2916.0,1.25
2918.0,1.18
2920.0,1.14
2922.0,1.12
2924.0,1.19
2926.0,1.19
2928.0,1.21
2930.0,1.34
2931.0,1.38
2933.0,1.42
2935.0,1.23
2937.0,1.22
2939.0,1.32
2941.0,1.42
2944.0,1.32
2946.0,1.26
2948.0,1.35
2950.0,1.47
2952.0,1.43
2954.0,1.37
2956.0,1.24
2958.0,1.33
2960.0,1.31
2962.0,1.33
2964.0,1.33
2966.0,1.35
2968.0,1.49
2970.0,1.69
2972.0,1.65
2973.0,1.59
2975.0,1.33
2977.0,1.4
2979.0,1.47
2981.0,1.44
2983.0,1.44
2985.0,1.41
2988.0,1.46
2990.0,1.52
2992.0,1.49
2994.0,1.46
2996.0,1.4
2998.0,1.4
3000.0,1.37
3002.0,1.41
3004.0,1.44
3006.0,1.39
3008.0,1.44
3010.0,1.6
3012.0,1.63
3014.0,1.55
3016.0,1.42
3017.0,1.39
3019.0,1.32
3021.0,1.33
3023.0,1.35
3025.0,1.34
3027.0,1.44
3030.0,1.54
3032.0,1.6
3034.0,1.58
3036.0,1.41
3038.0,1.41
3040.0,1.42
3042.0,1.43
3044.0,1.45
3046.0,1.45
3048.0,1.59
3050.0,1.61
3052.0,1.55
3054.0,1.6
3056.0,1.53
3058.0,1.46
3059.0,1.44
3061.0,1.41
3063.0,1.4
3065.0,1.37
3067.0,1.52
3069.0,1.65
3072.0,1.65
3074.0,1.57
3076.0,1.36
3078.0,1.35
3080.0,1.45
3082.0,1.48
3084.0,1.5
3086.0,1.54
3088.0,1.61
3090.0,1.66
3092.0,1.7
3094.0,1.59
3096.0,1.33
3098.0,1.45
3100.0,1.56
3102.0,1.53
3103.0,1.52
3105.0,1.58
3107.0,1.7
3109.0,1.74
3111.0,1.68
3113.0,1.64
3116.0,1.55
3118.0,1.6
3120.0,1.6
3122.0,1.55
3124.0,1.52
3126.0,1.52
3128.0,1.53
3130.0,1.55
3132.0,1.59
3134.0,1.54
3136.0,1.39
3138.0,1.37
3140.0,1.36
3142.0,1.43
3144.0,1.46
3146.0,1.44
3147.0,1.57
3149.0,1.63
3151.0,1.62
3153.0,1.54
3155.0,1.34
3158.0,1.35
3160.0,1.36
3162.0,1.35
3164.0,1.39
3166.0,1.4
3168.0,1.46
3170.0,1.52
3172.0,1.55
3174.0,1.51
3176.0,1.39
3178.0,1.37
3180.0,1.38
3182.0,1.42
3184.0,1.39
3186.0,1.41
3188.0,1.44
3190.0,1.48
3191.0,1.49
3193.0,1.51
3195.0,1.4
3197.0,1.37
3200.0,1.3
3202.0,1.27
3204.0,1.32
3206.0,1.35
3208.0,1.51
3210.0,1.65
3212.0,1.54
3214.0,1.57
3216.0,1.49
3218.0,1.44
3220.0,1.37
3222.0,1.35
3224.0,1.39
3226.0,1.4
3228.0,1.54
3230.0,1.59
3232.0,1.57
3234.0,1.42
3235.0,1.35
3237.0,1.37
3239.0,1.27
3241.0,1.48
3244.0,1.53
3246.0,1.39
3248.0,1.44
3250.0,1.48
3252.0,1.42
3254.0,1.36
3256.0,1.31
3258.0,1.22
3260.0,1.2
3262.0,1.2
3264.0,1.15
3266.0,1.17
3268.0,1.3
3270.0,1.58
3272.0,1.54
3274.0,1.32
3276.0,1.26
3277.0,1.36
3279.0,1.25
3281.0,1.21
3283.0,1.13
3286.0,1.13
3288.0,1.35
3290.0,1.47
3292.0,1.55
3294.0,1.72
3296.0,1.52
3298.0,1.35
3300.0,1.19
3302.0,1.23
3304.0,1.43
3306.0,1.45
3308.0,1.27
3310.0,0.96
3312.0,1.29
3314.0,1.57
3316.0,1.24
3318.0,1.46
3320.0,1.54
3321.0,1.44
3323.0,1.36
3325.0,1.43
3328.0,1.4
3330.0,1.27
3332.0,1.15
3334.0,1.68
3336.0,1.44
3338.0,1.28
3340.0,1.55
3342.0,1.45
3344.0,1.34
3346.0,1.14
3348.0,1.23
3350.0,1.71
3352.0,1.78
3354.0,2.1
3356.0,1.78
3358.0,1.64
3360.0,1.38
3362.0,1.16
3363.0,1.07
3365.0,1.34
3367.0,2.01
3369.0,1.75
3372.0,1.46
3374.0,1.52
3376.0,1.91
3378.0,1.5
3380.0,0.9
3382.0,1.36
3384.0,1.62
3386.0,1.62
3388.0,1.96
3390.0,1.39
3392.0,1.84
3394.0,2.21
3396.0,2.67
3398.0,2.33
3400.0,2.14
3402.0,2.04
3404.0,1.96
3406.0,1.72
3407.0,2.17
3409.0,2.21
3411.0,2.1
3414.0,2.05
3416.0,2.06
3418.0,1.78
3420.0,1.61
3422.0,1.67
3424.0,1.43
3426.0,1.84
3428.0,2.52
3430.0,2.49
3432.0,2.03
3434.0,1.55
3436.0,1.53
3438.0,1.88
3440.0,1.85
3442.0,1.38
3444.0,1.35
3446.0,1.51
3448.0,1.68
3449.0,1.92
3451.0,2.5
3453.0,2.01
3456.0,1.73
3458.0,1.4
3460.0,1.76
3462.0,1.62
3464.0,1.73
3466.0,2.01
3468.0,1.97
3470.0,1.69
3472.0,0.83
3474.0,1.67
3476.0,2.53
3478.0,2.14
3480.0,1.78
3482.0,1.75
3484.0,1.71
3486.0,1.62
3488.0,1.71
3490.0,1.69
3492.0,1.78
3493.0,1.85
3495.0,1.47
3497.0,1.53
3500.0,1.47
3502.0,1.98
3504.0,1.91
3506.0,1.71
3508.0,1.69
3510.0,1.86
3512.0,1.79
3514.0,1.95
3516.0,1.73
3518.0,1.61
3520.0,1.61
3522.0,1.44
3524.0,1.5
3526.0,1.45
3528.0,1.49
3530.0,2.31
3532.0,2.42
3534.0,1.66
3536.0,1.44
3537.0,1.28
3539.0,1.25
3542.0,1.18
3544.0,1.09
3546.0,1.35
3548.0,1.69
3550.0,1.41
3552.0,1.18
3554.0,1.68
3556.0,1.71
3558.0,1.57
3560.0,1.38
3562.0,1.37
3564.0,1.46
3566.0,1.46
3568.0,1.46
3570.0,1.59
3572.0,1.57
3574.0,1.51
3576.0,1.45
3578.0,1.45
3580.0,1.44
3581.0,1.37
3584.0,1.39
3586.0,1.48
3588.0,1.59
3590.0,1.68
3592.0,1.35
3594.0,1.4
3596.0,1.52
3598.0,1.52
3600.0,1.37
3602.0,1.26
3604.0,1.35
3606.0,1.63
3608.0,1.71
3610.0,1.63
3612.0,1.58
3614.0,1.66
3616.0,1.59
3618.0,1.44
3620.0,1.35
3622.0,1.35
3624.0,1.27
3625.0,1.19
3628.0,1.27
3630.0,1.41
3632.0,1.31
3634.0,1.23
3636.0,1.23
3638.0,1.12
3640.0,0.99
3642.0,1.2
3644.0,1.42
3646.0,1.42
3648.0,1.43
3650.0,1.37
3652.0,1.34
3654.0,1.18
3656.0,1.16
3658.0,1.12
3660.0,0.9
3662.0,0.74
3664.0,1.08
3666.0,1.34
3667.0,1.06
3670.0,1.22
3672.0,1.28
3674.0,1.17
3676.0,0.79
3678.0,0.9
3680.0,1.04
3682.0,1.04
3684.0,1.1
3686.0,1.12
3688.0,1.11
3690.0,1.45
3692.0,1.43
3694.0,1.18
3696.0,1.22
3698.0,1.16
3700.0,1.21
3702.0,1.25
3704.0,1.23
3706.0,1.3
3708.0,1.31
3709.0,1.45
3712.0,1.55
3714.0,1.5
3716.0,1.36
3718.0,1.23
3720.0,1.32
3722.0,1.33
3724.0,1.41
3726.0,1.33
3728.0,1.34
3730.0,1.55
3732.0,1.59
3734.0,1.44
3736.0,1.28
3738.0,1.35
3740.0,1.34
3742.0,1.26
3744.0,1.17
3746.0,1.35
3748.0,1.49
3750.0,1.41
3752.0,1.26
3753.0,1.2
3756.0,1.26
3758.0,1.18
3760.0,1.26
3762.0,1.33
3764.0,1.18
3766.0,1.16
3768.0,1.4
3770.0,1.52
3772.0,1.48
3774.0,1.32
3776.0,1.19
3778.0,1.18
3780.0,1.15
3782.0,1.15
3784.0,1.22
3786.0,1.28
3788.0,1.3
3790.0,1.48
3792.0,1.52
3794.0,1.32
3795.0,1.32
3798.0,1.4
3800.0,1.34
3802.0,1.34
3804.0,1.33
3806.0,1.27
3808.0,1.36
3810.0,1.36
3812.0,1.43
3814.0,1.37
3816.0,1.27
3818.0,1.22
3820.0,1.2
3822.0,1.23
3824.0,1.25
3826.0,1.3
3828.0,1.41
3830.0,1.5
3832.0,1.53
3834.0,1.45
3836.0,1.35
3838.0,1.38
3840.0,1.31
3842.0,1.41
3844.0,1.38
3846.0,1.34
3848.0,1.54
3850.0,1.63
3852.0,1.6
3854.0,1.46
3856.0,1.32
3858.0,1.28
3860.0,1.29
3862.0,1.33
3864.0,1.47
3866.0,1.52
3868.0,1.49
3870.0,1.51
3872.0,1.51
3874.0,1.45
3876.0,1.34
3878.0,1.33
3880.0,1.3
3881.0,1.3
3884.0,1.25
3886.0,1.29
3888.0,1.44
3890.0,1.56
3892.0,1.59
3894.0,1.36
3896.0,1.39
3898.0,1.44
3900.0,1.39
3902.0,1.56
3904.0,1.59
3906.0,1.57
3908.0,1.53
3910.0,1.52
3912.0,1.56
3914.0,1.53
3916.0,1.35
3918.0,1.35
3920.0,1.46
3922.0,1.4
3924.0,1.35
3926.0,1.4
3928.0,1.47
3930.0,1.56
3932.0,1.65
3934.0,1.54
3936.0,1.48
3938.0,1.46
3940.0,1.43
3942.0,1.43
3944.0,1.49
3946.0,1.64
3948.0,1.63
3950.0,1.66
3952.0,1.65
3954.0,1.57
3956.0,1.49
3958.0,1.45
3960.0,1.39
3962.0,1.42
3964.0,1.42
3966.0,1.45
3969.0,1.59
3970.0,1.65
3972.0,1.52
3974.0,1.34
3976.0,1.21
3978.0,1.38
3980.0,1.49
3982.0,1.44
3984.0,1.48
3986.0,1.45
3988.0,1.52
3990.0,1.57
3992.0,1.54
3994.0,1.44
3996.0,1.32
3998.0,1.33
4000.0,1.35
4002.0,1.41
4004.0,1.43
4006.0,1.34
4008.0,1.45
4011.0,1.6
4012.0,1.52
4014.0,1.34
4016.0,1.2
4018.0,1.21
4020.0,1.21
4022.0,1.38
4024.0,1.38
4026.0,1.34
4028.0,1.41
4030.0,1.49
4032.0,1.48
4034.0,1.45
4036.0,1.35
4038.0,1.33
4040.0,1.34
4042.0,1.42
4044.0,1.47
4046.0,1.53
4048.0,1.62
4050.0,1.65
4052.0,1.56
4054.0,1.44
4056.0,1.39
4058.0,1.45
4060.0,1.45
4062.0,1.4
4064.0,1.45
4066.0,1.5
4068.0,1.64
4070.0,1.65
4072.0,1.64
4074.0,1.53
4076.0,1.33
4078.0,1.4
4080.0,1.45
4082.0,1.39
4084.0,1.38
4086.0,1.41
4088.0,1.57
4090.0,1.65
4092.0,1.67
4094.0,1.57
4097.0,1.43
4098.0,1.44
4100.0,1.47
4102.0,1.43
4104.0,1.42
4106.0,1.43
4108.0,1.57
4110.0,1.63
4112.0,1.54
4114.0,1.34
4116.0,1.29
4118.0,1.62
4120.0,1.59
4122.0,1.52
4124.0,1.53
4126.0,1.54
4128.0,1.58
4130.0,1.61
4132.0,1.59
4134.0,1.46
4136.0,1.32
4139.0,1.3
4140.0,1.24
4142.0,1.35
4144.0,1.5
4146.0,1.71
4148.0,1.76
4150.0,1.7
4152.0,1.63
4154.0,1.61
4156.0,1.59
4158.0,1.58
4160.0,1.56
4162.0,1.54
4164.0,1.53
4166.0,1.54
4168.0,1.67
4170.0,1.63
4172.0,1.56
4174.0,1.55
4176.0,1.58
4178.0,1.46
4180.0,1.42
4183.0,1.51
4184.0,1.45
4186.0,1.36
4188.0,1.49
4190.0,1.7
4192.0,1.61
4194.0,1.5
4196.0,1.53
4198.0,1.57
4200.0,1.44
4202.0,1.45
4204.0,1.25
4206.0,1.13
4208.0,1.28
4210.0,2.04
4212.0,1.87
4214.0,1.39
4216.0,1.41
4218.0,1.46
4220.0,1.33
4222.0,1.38
4225.0,1.27
4226.0,1.33
4228.0,1.45
4230.0,1.38
4232.0,1.53
4234.0,1.44
4236.0,1.18
4238.0,0.9
4240.0,1.43
4242.0,1.65
4244.0,1.55
4246.0,1.28
4248.0,1.42
4250.0,1.57
4252.0,1.75
4254.0,1.62
4256.0,1.48
4258.0,1.47
4260.0,1.23
4262.0,1.47
4264.0,1.19
4267.0,1.55
4269.0,1.71
4270.0,1.49
4272.0,1.54
4274.0,1.34
4276.0,0.99
4278.0,1.75
4280.0,1.39
4282.0,1.6
4284.0,1.69
4286.0,1.4
4288.0,1.32
4290.0,1.92
4292.0,2.16
4294.0,1.73
4296.0,1.53
4298.0,1.52
4300.0,1.01
4302.0,0.86
4304.0,1.75
4306.0,1.53
4308.0,1.75
4311.0,2.16
4312.0,1.85
4314.0,1.46
4316.0,1.36
4318.0,1.15
4320.0,1.32
4322.0,1.27
4324.0,1.51
4326.0,1.57
4328.0,1.8
4330.0,1.68
4332.0,1.47
4334.0,1.47
4336.0,1.33
4338.0,1.5
4340.0,1.26
4342.0,1.37
4344.0,1.53
4346.0,1.84
4348.0,1.8
4350.0,1.6
4353.0,1.37
4355.0,1.47
4356.0,1.36
4358.0,1.33
4360.0,1.35
4362.0,1.17
4364.0,1.38
4366.0,1.82
4368.0,1.62
4370.0,1.35
4372.0,1.17
4374.0,1.03
4376.0,1.04
4378.0,1.45
4380.0,1.52
4382.0,1.47
4384.0,1.41
4386.0,1.24
4388.0,1.14
4390.0,1.36
4392.0,1.4
4395.0,1.51
4397.0,1.42
4398.0,1.17
4400.0,1.22
4402.0,1.22
4404.0,1.04
4406.0,1.06
4408.0,1.06
4410.0,1.55
4412.0,1.69
4414.0,1.52
4416.0,1.5
4418.0,1.42
4420.0,1.32
4422.0,1.37
4424.0,1.39
4426.0,1.4
4428.0,1.59
4430.0,1.4
4432.0,1.54
4434.0,1.71
4436.0,1.61
4439.0,1.96
4441.0,1.85
4442.0,1.74
4444.0,1.49
4446.0,1.51
4448.0,2.1
4450.0,2.11
4452.0,1.84
4454.0,1.51
4456.0,1.26
4458.0,1.31
4460.0,1.51
4462.0,1.79
4464.0,1.89
4466.0,1.73
4468.0,1.77
4470.0,1.71
4472.0,1.45
4474.0,1.51
4476.0,1.31
4478.0,1.39
4481.0,1.27
4483.0,1.53
4485.0,1.89
4486.0,1.81
4488.0,1.99
4490.0,1.79
4492.0,1.49
4494.0,1.98
4496.0,1.82
4498.0,1.67
4500.0,1.52
4502.0,1.51
4504.0,1.5
4506.0,1.44
4508.0,1.36
4510.0,1.49
4512.0,1.67
4514.0,1.45
4516.0,1.11
4518.0,1.43
4520.0,1.87
4523.0,1.77
4525.0,1.7
4527.0,1.7
4528.0,1.68
4530.0,1.5
4532.0,1.54
4534.0,1.45
4536.0,1.41
4538.0,1.43
4540.0,1.62
4542.0,1.48
4544.0,1.28
4546.0,1.19
4548.0,1.45
4550.0,1.44
4552.0,1.47
4554.0,1.13
4556.0,1.02
4558.0,1.38
4560.0,1.19
4562.0,1.27
4564.0,1.26
4567.0,1.35
4569.0,1.44
4571.0,1.46
4572.0,1.57
4574.0,1.63
4576.0,1.53
4578.0,1.45
4580.0,1.25
4582.0,1.21
4584.0,1.66
4586.0,1.73
4588.0,1.8
4590.0,1.77
4592.0,1.66
4594.0,1.68
4596.0,1.4
4598.0,1.39
4600.0,1.36
4602.0,1.65
4604.0,1.58
4606.0,1.6
4609.0,1.71
4611.0,1.73
4613.0,1.61
4614.0,1.33
4616.0,1.33
4618.0,1.92
4620.0,1.6
4622.0,1.44
4624.0,1.52
4626.0,1.59
4628.0,1.63
4630.0,1.69
4632.0,1.64
4634.0,1.43
4636.0,1.3
4638.0,1.46
4640.0,1.3
4642.0,1.29
4644.0,1.36
4646.0,1.63
4648.0,1.69
4651.0,1.61
4653.0,1.55
4655.0,1.4
4657.0,1.31
4658.0,1.3
4660.0,1.28
4662.0,1.32
4664.0,1.43
4666.0,1.56
4668.0,1.58
4670.0,1.6
4672.0,1.56
4674.0,1.48
4676.0,1.39
4678.0,1.37
4680.0,1.45
4682.0,1.44
4684.0,1.36
4686.0,1.28
4688.0,1.54
4690.0,1.76
4692.0,1.7
4695.0,1.46
4697.0,1.33
4699.0,1.3
4701.0,1.31
4702.0,1.32
4704.0,1.31
4706.0,1.34
4708.0,1.5
4710.0,1.54
4712.0,1.47
4714.0,1.26
4716.0,1.19
4718.0,1.57
4720.0,1.44
4722.0,1.43
4724.0,1.47
4726.0,1.4
4728.0,1.52
4730.0,1.53
4732.0,1.45
4734.0,1.27
4737.0,1.16
4739.0,1.16
4741.0,1.08
4743.0,0.98
4745.0,1.23
4746.0,1.35
4748.0,1.52
4750.0,1.71
4752.0,1.68
4754.0,1.6
4756.0,1.44
4758.0,1.46
4760.0,1.5
4762.0,1.39
4764.0,1.62
4766.0,1.65
4768.0,1.67
4770.0,1.6
4772.0,1.65
4774.0,1.56
4776.0,1.39
4779.0,1.31
4781.0,1.3
4783.0,1.44
4785.0,1.4
4787.0,1.31
4789.0,1.54
4790.0,1.7
4792.0,1.59
4794.0,1.49
4796.0,1.4
4798.0,1.33
4800.0,1.34
4802.0,1.42
4804.0,1.56
4806.0,1.54
4808.0,1.61
4810.0,1.65
4812.0,1.6
4814.0,1.49
4816.0,1.3
4818.0,1.16
4820.0,1.44
4823.0,1.7
4825.0,1.62
4827.0,1.57
4829.0,1.62
4831.0,1.64
4832.0,1.6
4834.0,1.45
4836.0,1.41
4838.0,1.41
4840.0,1.35
4842.0,1.48
4844.0,1.51
4846.0,1.3
4848.0,1.35
4850.0,1.61
4852.0,1.52
4854.0,1.32
4856.0,1.23
4858.0,1.22
4860.0,1.24
4862.0,1.28
4865.0,1.32
4867.0,1.35
4869.0,1.48
4871.0,1.43
4873.0,1.42
4875.0,1.31
4876.0,1.35
4878.0,1.4
4880.0,1.36
4882.0,1.36
4884.0,1.35
4886.0,1.38
4888.0,1.48
4890.0,1.47
4892.0,1.57
4894.0,1.45
4896.0,1.35
4898.0,1.45
4900.0,1.41
4902.0,1.31
4904.0,1.35
4907.0,1.39
4909.0,1.58
4911.0,1.55
4913.0,1.46
4915.0,1.34
4917.0,1.29
4918.0,1.26
4920.0,1.25
4922.0,1.35
4924.0,1.38
4926.0,1.46
4928.0,1.53
4930.0,1.49
4932.0,1.62
4934.0,1.62
4936.0,1.47
4938.0,1.43
4940.0,1.34
4942.0,1.32
4944.0,1.4
4946.0,1.62
4948.0,1.66
4951.0,1.59
4953.0,1.68
4955.0,1.6
4957.0,1.47
4959.0,1.4
4961.0,1.28
4962.0,1.31
4964.0,1.45
4966.0,1.47
4968.0,1.58
4970.0,1.65
4972.0,1.59
4974.0,1.4
4976.0,1.35
4978.0,1.38
4980.0,1.29
4982.0,1.33
4984.0,1.44
4986.0,1.53
4988.0,1.63
4990.0,1.61
4993.0,1.41
4995.0,1.32
4997.0,1.37
4999.0,1.27
5001.0,1.39
5003.0,1.65
5004.0,1.57
5006.0,1.53
5008.0,1.62
5010.0,1.6
5012.0,1.58
5014.0,1.45
5016.0,1.36
5018.0,1.34
5020.0,1.3
5022.0,1.34
5024.0,1.54
5026.0,1.53
5028.0,1.45
5030.0,1.45
5032.0,1.55
5035.0,1.4
5037.0,1.27
5039.0,1.31
5041.0,1.35
5043.0,1.33
5045.0,1.32
5047.0,1.29
5048.0,1.38
5050.0,1.45
5052.0,1.48
5054.0,1.44
5056.0,1.29
5058.0,1.18
5060.0,1.34
5062.0,1.34
5064.0,1.29
5066.0,1.37
5068.0,1.52
5070.0,1.48
5072.0,1.37
5074.0,1.3
5076.0,1.34
5079.0,1.3
5081.0,1.31
5083.0,1.32
5085.0,1.31
5087.0,1.33
5089.0,1.48
5091.0,1.55
5092.0,1.55
5094.0,1.34
5096.0,1.43
5098.0,1.37
5100.0,1.37
5102.0,1.37
5104.0,1.39
5106.0,1.62
5108.0,1.55
5110.0,1.35
5112.0,1.46
5114.0,1.55
5116.0,1.37
5118.0,1.35
5121.0,1.35
5123.0,1.31
5125.0,1.23
5127.0,1.39
5129.0,1.66
5131.0,1.68
5133.0,1.45
5135.0,1.29
5136.0,1.28
5138.0,1.36
5140.0,1.6
5142.0,1.53
5144.0,1.46
5146.0,1.42
5148.0,1.53
5150.0,1.33
5152.0,1.75
5154.0,1.71
5156.0,1.56
5158.0,1.47
5160.0,1.39
5163.0,1.38
5165.0,1.45
5167.0,1.4
5169.0,1.6
5171.0,1.55
5173.0,1.52
5175.0,1.54
5177.0,1.4
5178.0,1.33
5180.0,1.31
5182.0,1.32
5184.0,1.44
5186.0,1.81
5188.0,1.77
5190.0,1.64
5192.0,1.46
5194.0,1.45
5196.0,1.51
5198.0,1.41
5200.0,1.39
5202.0,1.22
5204.0,1.04
5207.0,1.25
5209.0,1.83
5211.0,1.88
5213.0,1.63
5215.0,1.17
5217.0,1.02
5219.0,1.33
5221.0,1.65
5222.0,1.64
5224.0,1.74
5226.0,1.69
5228.0,1.66
5230.0,1.62
5232.0,1.26
5234.0,1.34
5236.0,1.5
5238.0,1.43
5240.0,1.59
5242.0,1.71
5244.0,1.66
5246.0,1.65
5249.0,1.61
5251.0,1.58
5253.0,1.45
5255.0,1.38
5257.0,1.57
5259.0,1.39
5261.0,1.38
5263.0,1.48
5264.0,1.28
5266.0,1.1
5268.0,1.2
5270.0,0.93
5272.0,1.25
5274.0,1.65
5276.0,1.41
5278.0,1.12
5280.0,1.32
5282.0,1.43
5284.0,1.24
5286.0,1.31
5288.0,1.4
5291.0,1.44
5293.0,0.83
5295.0,1.25
5297.0,1.77
5299.0,1.57
5301.0,1.28
5303.0,1.45
5305.0,1.3
5307.0,1.16
5308.0,0.86
5310.0,1.86
5312.0,1.9
5314.0,1.55
5316.0,1.46
5318.0,1.58
5320.0,1.56
5322.0,1.44
5324.0,1.33
5326.0,1.21
5328.0,1.1
5330.0,1.03
5332.0,2.29
5335.0,2.28
5337.0,1.91
5339.0,1.65
5341.0,1.45
5343.0,1.54
5345.0,1.74
5347.0,1.65
5349.0,1.77
5350.0,1.75
5352.0,1.86
5354.0,1.7
5356.0,1.3
5358.0,1.41
5360.0,1.82
5362.0,1.54
5364.0,1.28
5366.0,1.61
5368.0,2.2
5370.0,2.05
5372.0,1.55
5374.0,1.48
5377.0,2.12
5379.0,2.23
5381.0,1.75
5383.0,1.64
5385.0,1.66
5387.0,1.46
5389.0,1.89
5391.0,2.17
5393.0,2.14
5394.0,1.69
5396.0,1.59
5398.0,1.02
5400.0,1.44
5402.0,0.85
5404.0,0.98
5406.0,1.22
5408.0,2.89
5410.0,2.43
5412.0,1.93
5414.0,1.55
5416.0,1.45
5419.0,1.43
5421.0,1.33
5423.0,1.37
5425.0,1.35
5427.0,1.32
5429.0,1.57
5431.0,1.53
5433.0,1.57
5435.0,1.67
5436.0,1.6
5438.0,1.41
5440.0,1.63
5442.0,1.48
5444.0,1.53
5446.0,1.62
5448.0,1.87
5450.0,2.3
5452.0,2.28
5454.0,1.73
5456.0,1.63
5458.0,1.46
5460.0,0.98
5463.0,0.86
5465.0,1.77
5467.0,2.02
5469.0,1.55
5471.0,1.86
5473.0,2.21
5475.0,1.71
5477.0,1.54
5479.0,1.31
5480.0,1.17
5482.0,1.29
5484.0,1.95
5486.0,2.19
5488.0,1.98
5490.0,1.84
5492.0,1.63
5494.0,1.35
5496.0,1.07
5498.0,1.05
5500.0,1.66
5502.0,1.57
5505.0,1.39
5507.0,1.56
5509.0,1.32
5511.0,1.55
5513.0,1.49
5515.0,1.38
5517.0,1.62
5519.0,1.56
5521.0,1.42
5523.0,1.57
5524.0,1.38
5526.0,1.34
5528.0,1.59
5530.0,1.77
5532.0,1.82
5534.0,1.82
5536.0,1.59
5538.0,1.5
5540.0,1.52
5542.0,1.52
5544.0,1.35
5547.0,1.43
5549.0,1.75
5551.0,1.71
5553.0,1.36
5555.0,1.51
5557.0,1.56
5559.0,1.3
5561.0,1.23
5563.0,1.31
5565.0,1.3
5566.0,1.4
5568.0,1.41
5570.0,1.31
5572.0,1.46
5574.0,1.24
5576.0,0.83
5578.0,0.95
5580.0,1.7
5582.0,1.54
5584.0,1.25
5586.0,1.08
5588.0,1.62
5591.0,1.82
5593.0,1.52
5595.0,1.53
5597.0,1.45
5599.0,1.45
5601.0,1.46
5603.0,1.48
5605.0,1.52
5607.0,1.53
5609.0,1.57
5610.0,1.46
5612.0,1.31
5614.0,1.41
5616.0,1.88
5618.0,1.78
5620.0,1.7
5622.0,1.62
5624.0,1.56
5626.0,1.65
5628.0,1.75
5630.0,1.66
5633.0,1.63
5635.0,1.51
5637.0,1.39
5639.0,1.31
5641.0,1.38
5643.0,1.26
5645.0,1.31
5647.0,1.38
5649.0,1.78
5651.0,1.67
5652.0,1.56
5654.0,1.45
5656.0,1.32
5658.0,1.17
5660.0,1.19
5662.0,1.28
5664.0,1.35
5666.0,1.33
5668.0,1.34
5670.0,1.31
5672.0,1.37
5675.0,1.22
5677.0,1.06
5679.0,1.23
5681.0,1.16
5683.0,1.19
5685.0,1.35
5687.0,1.37
5689.0,1.46
5691.0,1.44
5693.0,1.32
5695.0,1.28
5696.0,1.23
5698.0,1.26
5700.0,1.1
5702.0,1.31
5704.0,1.39
5706.0,1.51
5708.0,1.59
5710.0,1.51
5712.0,1.49
5714.0,1.39
5716.0,1.23
5719.0,1.1
5721.0,1.37
5723.0,1.46
5725.0,1.31
5727.0,1.42
5729.0,1.42
5731.0,1.46
5733.0,1.48
5735.0,1.28
5737.0,1.07
5739.0,1.12
5740.0,1.14
5742.0,1.18
5744.0,1.29
5746.0,1.29
5748.0,1.35
5750.0,1.42
5752.0,1.26
5754.0,1.17
5756.0,1.03
5758.0,1.15
5761.0,1.22
5763.0,1.14
5765.0,1.22
5767.0,1.37
5769.0,1.31
5771.0,1.37
5773.0,1.46
5775.0,1.31
5777.0,1.2
5779.0,1.15
5781.0,1.2
5783.0,1.15
5784.0,1.16
5786.0,1.39
5788.0,1.41
5790.0,1.37
5792.0,1.39
5794.0,1.25
5796.0,1.26
5798.0,1.16
5800.0,1.19
5803.0,1.22
5805.0,1.3
5807.0,1.39
5809.0,1.45
5811.0,1.55
5813.0,1.37
5815.0,1.07
5817.0,1.49
5819.0,1.44
5821.0,1.5
5823.0,1.47
5825.0,1.45
5826.0,1.54
5828.0,1.56
5830.0,1.55
5832.0,1.51
5834.0,1.34
5836.0,1.24
5838.0,1.35
5840.0,1.4
5842.0,1.32
5844.0,1.41
5847.0,1.38
5849.0,1.54
5851.0,1.76
5853.0,1.58
5855.0,1.44
5857.0,1.42
5859.0,1.41
5861.0,1.42
5863.0,1.39
5865.0,1.37
5867.0,1.56
5869.0,1.92
5870.0,1.75
5872.0,1.64
5874.0,1.51
5876.0,1.49
5878.0,1.3
5880.0,1.55
5882.0,1.57
5884.0,1.49
5886.0,1.55
5889.0,1.59
5891.0,1.43
5893.0,1.41
5895.0,1.43
5897.0,1.29
5899.0,1.14
5901.0,1.25
5903.0,1.4
5905.0,1.51
5907.0,1.66
5909.0,1.71
5911.0,1.57
5912.0,1.5
5914.0,1.47
5916.0,1.41
5918.0,1.22
5920.0,1.44
5922.0,1.71
5924.0,1.61
5926.0,1.55
5928.0,1.59
5931.0,1.6
5933.0,1.52
5935.0,1.44
5937.0,1.42
5939.0,1.35
5941.0,1.38
5943.0,1.4
5945.0,1.41
5947.0,1.47
5949.0,1.52
5951.0,1.47
5953.0,1.46
5955.0,1.4
5956.0,1.39
5958.0,1.37
5960.0,1.41
5962.0,1.35
5964.0,1.34
5966.0,1.42
5968.0,1.55
5970.0,1.55
5972.0,1.43
5975.0,1.43
5977.0,1.33
5979.0,1.2
5981.0,1.32
5983.0,1.53
5985.0,1.42
5987.0,1.44
5989.0,1.62
5991.0,1.7
5993.0,1.58
5995.0,1.28
5997.0,1.19
5999.0,1.4
6000.0,1.39
6002.0,1.52
6004.0,1.42
6006.0,1.42
6008.0,1.51
6010.0,1.58
6012.0,1.45
6014.0,1.4
6017.0,1.41
6019.0,1.3
6021.0,1.32
6023.0,1.32
6025.0,1.34
6027.0,1.47
6029.0,1.71
6031.0,1.75
6033.0,1.53
6035.0,1.42
6037.0,1.42
6039.0,1.41
6041.0,1.43
6043.0,1.42
6044.0,1.37
6046.0,1.59
6048.0,1.8
6050.0,1.75
6052.0,1.62
6054.0,1.51
6056.0,1.53
6059.0,1.45
6061.0,1.38
6063.0,1.44
6065.0,1.56
6067.0,1.61
6069.0,1.63
6071.0,1.58
6073.0,1.62
6075.0,1.5
6077.0,1.52
6079.0,1.54
6081.0,1.5
6083.0,1.49
6085.0,1.49
6087.0,1.47
6088.0,1.55
6090.0,1.84
6092.0,1.69
6094.0,1.56
6096.0,1.51
6098.0,1.43
6100.0,1.41
6103.0,1.43
6105.0,1.47
6107.0,1.49
6109.0,1.59
6111.0,1.75
6113.0,1.57
6115.0,1.29
6117.0,1.38
6119.0,1.34
6121.0,1.43
6123.0,1.45
6125.0,1.43
6127.0,1.58
6129.0,1.57
6130.0,1.49
6132.0,1.47
6134.0,1.32
6136.0,1.35
6138.0,1.39
6140.0,1.32
6142.0,1.4
6145.0,1.48
6147.0,1.55
6149.0,1.56
6151.0,1.46
6153.0,1.44
6155.0,1.29
6157.0,1.48
6159.0,1.5
6161.0,1.44
6163.0,1.39
6165.0,1.44
6167.0,1.47
6169.0,1.52
6171.0,1.5
6173.0,1.45
6174.0,1.39
6176.0,1.35
6178.0,1.3
6180.0,1.34
6182.0,1.5
6184.0,1.3
6187.0,1.31
6189.0,1.64
6191.0,1.64
6193.0,1.55
6195.0,1.34
6197.0,1.4
6199.0,1.47
6201.0,1.44
6203.0,1.41
6205.0,1.41
6207.0,1.43
6209.0,1.44
6211.0,1.6
6213.0,1.52
6215.0,1.4
6217.0,1.32
6218.0,1.29
6220.0,1.32
6222.0,1.47
6224.0,1.48
6226.0,1.48
6228.0,1.53
6231.0,1.52
6233.0,1.25
6235.0,0.98
6237.0,1.28
6239.0,1.45
6241.0,1.38
6243.0,1.45
6245.0,1.48
6247.0,1.58
6249.0,1.65
6251.0,1.6
6253.0,1.53
6255.0,1.48
6257.0,1.38
6259.0,1.23
6261.0,1.36
6262.0,1.46
6264.0,1.46
6266.0,1.62
6268.0,1.72
6270.0,1.43
6273.0,1.45
6275.0,1.86
6277.0,1.67
6279.0,1.47
6281.0,1.48
6283.0,1.57
6285.0,1.59
6287.0,1.49
6289.0,1.63
6291.0,1.77
6293.0,1.51
6295.0,1.31
6297.0,1.29
6299.0,1.22
6301.0,1.25
6303.0,1.55
6305.0,1.41
6306.0,1.25
6308.0,1.53
6310.0,1.58
6312.0,1.33
6315.0,1.33
6317.0,1.26
6319.0,1.34
6321.0,1.17
6323.0,1.41
6325.0,1.83
6327.0,1.64
6329.0,1.49
6331.0,1.19
6333.0,1.52
6335.0,1.66
6337.0,1.76
6339.0,1.45
6341.0,1.45
6343.0,1.51
6345.0,1.19
6347.0,1.41
6349.0,1.52
6350.0,1.14
6352.0,1.3
6354.0,1.65
6356.0,1.61
6359.0,1.45
6361.0,1.39
6363.0,1.36
6365.0,1.71
6367.0,1.62
6369.0,1.59
6371.0,1.58
6373.0,1.08
6375.0,0.68
6377.0,1.86
6379.0,0.89
6381.0,0.99
6383.0,2.31
6385.0,2.09
6387.0,1.85
6389.0,1.88
6391.0,1.41
6393.0,1.24
6394.0,0.75
6396.0,0.67
6398.0,2.12
6401.0,1.8
6403.0,1.58
6405.0,1.5
6407.0,1.63
6409.0,1.6
6411.0,1.9
6413.0,1.79
6415.0,1.47
6417.0,1.17
6419.0,1.41
6421.0,1.76
6423.0,1.36
6425.0,0.89
6427.0,1.89
6429.0,1.96
6431.0,2.14
6433.0,1.8
6435.0,1.09
6436.0,1.52
6438.0,2.04
6440.0,2.02
6443.0,1.75
6445.0,1.65
6447.0,1.91
6449.0,1.88
6451.0,1.68
6453.0,1.52
6455.0,1.69
6457.0,1.52
6459.0,1.31
6461.0,1.26
6463.0,1.67
6465.0,1.76
6467.0,1.59
6469.0,1.98
6471.0,1.88
6473.0,1.53
6475.0,1.57
6477.0,1.77
6479.0,1.84
6480.0,1.85
6482.0,1.73
6484.0,1.64
6487.0,1.87
6489.0,1.9
6491.0,1.5
6493.0,1.58
6495.0,1.43
6497.0,1.11
6499.0,1.32
6501.0,1.6
6503.0,1.93
6505.0,1.95
6507.0,1.76
6509.0,1.68
6511.0,1.22
6513.0,0.91
6515.0,1.77
6517.0,1.68
6519.0,1.55
6521.0,1.41
6522.0,1.31
6524.0,1.37
6526.0,1.44
6529.0,1.49
6531.0,1.37
6533.0,1.06
6535.0,1.29
6537.0,1.34
6539.0,1.37
6541.0,1.42
6543.0,1.22
6545.0,1.49
6547.0,1.8
6549.0,1.72
6551.0,1.68
6553.0,1.64
6555.0,1.52
6557.0,1.5
6559.0,1.3
6561.0,1.17
6563.0,0.98
6565.0,1.21
6566.0,1.62
6568.0,1.81
6571.0,1.73
6573.0,1.43
6575.0,1.4
6577.0,1.37
6579.0,1.02
6581.0,1.65
6583.0,1.76
6585.0,1.67
6587.0,1.66
6589.0,1.6
6591.0,1.45
6593.0,1.54
6595.0,1.39
6597.0,1.36
6599.0,1.43
6601.0,1.56
6603.0,1.59
6605.0,1.53
6607.0,1.58
6608.0,1.6
6610.0,1.51
6612.0,1.51
6615.0,1.38
6617.0,1.27
6619.0,1.21
6621.0,1.3
6623.0,1.27
6625.0,1.42
6627.0,1.52
6629.0,1.35
6631.0,1.45
6633.0,1.43
6635.0,1.24
6637.0,1.38
6639.0,1.38
6641.0,1.3
6643.0,1.31
6645.0,1.26
6647.0,1.55
6649.0,1.66
6651.0,1.49
6652.0,1.42
6654.0,1.41
6657.0,1.36
6659.0,1.28
6661.0,1.24
6663.0,1.22
6665.0,1.34
6667.0,1.36
6669.0,1.45
6671.0,1.55
6673.0,1.44
6675.0,1.49
6677.0,1.35
6679.0,1.28
6681.0,1.25
6683.0,1.24
6685.0,1.38
6687.0,1.53
6689.0,1.5
6691.0,1.41
6693.0,1.3
6694.0,1.22
6696.0,1.13
6699.0,0.93
6701.0,1.11
6703.0,1.38
6705.0,1.32
6707.0,1.44
6709.0,1.38
6711.0,1.31
6713.0,1.24
6715.0,1.17
6717.0,1.19
6719.0,1.09
6721.0,1.15
6723.0,1.15
6725.0,1.26
6727.0,1.35
6729.0,1.47
6731.0,1.5
6733.0,1.49
6735.0,1.43
6737.0,1.23
6738.0,1.32
6740.0,1.43
6743.0,1.35
6745.0,1.34
6747.0,1.39
6749.0,1.55
6751.0,1.5
6753.0,1.25
6755.0,1.23
6757.0,1.48
6759.0,1.25
6761.0,1.3
6763.0,1.42
6765.0,1.31
6767.0,1.52
6769.0,1.62
6771.0,1.54
6773.0,1.45
6775.0,1.4
6777.0,1.42
6779.0,1.39
6780.0,1.28
6782.0,1.4
6785.0,1.57
6787.0,1.62
6789.0,1.72
6791.0,1.53
6793.0,1.64
6795.0,1.54
6797.0,1.38
6799.0,1.48
6801.0,1.52
6803.0,1.48
6805.0,1.42
6807.0,1.47
6809.0,1.37
6811.0,1.31
6813.0,1.37
6815.0,1.38
6817.0,1.3
6819.0,1.23
6821.0,1.14
6823.0,1.09
6824.0,1.35
6827.0,1.51
6829.0,1.5
6831.0,1.33
6833.0,1.27
6835.0,1.22
6837.0,1.3
6839.0,1.27
6841.0,1.34
6843.0,1.36
6845.0,1.4
6847.0,1.38
6849.0,1.5
6851.0,1.62
6853.0,1.54
6855.0,1.39
6857.0,1.35
6859.0,1.24
6861.0,1.14
6863.0,1.09
6865.0,1.28
6866.0,1.61
6868.0,1.65
6871.0,1.54
6873.0,1.55
6875.0,1.43
6877.0,1.35
6879.0,1.3
6881.0,1.25
6883.0,1.31
6885.0,1.43
6887.0,1.68
6889.0,1.65
6891.0,1.73
6893.0,1.52
6895.0,1.56
6897.0,1.59
6899.0,1.47
6901.0,1.59
6903.0,1.62
6905.0,1.63
6907.0,1.52
6909.0,1.67
6910.0,1.82
6913.0,1.73
6915.0,1.6
6917.0,1.58
6919.0,1.56
6921.0,1.51
6923.0,1.53
6925.0,1.63
6927.0,1.81
6929.0,1.73
6931.0,1.67
6933.0,1.6
6935.0,1.51
6937.0,1.26
6939.0,1.23
6941.0,1.31
6943.0,1.52
6945.0,1.53
6947.0,1.64
6949.0,1.63
6951.0,1.52
6952.0,1.41
6955.0,1.36
6957.0,1.46
6959.0,1.51
6961.0,1.41
6963.0,1.34
6965.0,1.39
6967.0,1.53
6969.0,1.69
6971.0,1.7
6973.0,1.5
6975.0,1.41
6977.0,1.45
6979.0,1.25
6981.0,1.25
6983.0,1.46
6985.0,1.44
6987.0,1.49
6989.0,1.63
6991.0,1.58
6993.0,1.36
6995.0,1.34
6996.0,1.27
6999.0,1.39
7001.0,1.35
7003.0,1.43
7005.0,1.6
7007.0,1.6
7009.0,1.64
7011.0,1.66
7013.0,1.53
7015.0,1.4
7017.0,1.36
7019.0,1.34
7021.0,1.35
7023.0,1.4
7025.0,1.46
7027.0,1.51
7029.0,1.42
7031.0,1.55
7033.0,1.41
7035.0,1.39
7037.0,1.28
7040.0,1.16
7041.0,1.34
7043.0,1.39
7045.0,1.41
7047.0,1.58
7049.0,1.56
7051.0,1.53
7053.0,1.41
7055.0,1.35
7057.0,1.16
7059.0,1.09
7061.0,1.35
7063.0,1.71
7065.0,1.55
7067.0,1.52
7069.0,1.56
7071.0,1.55
7073.0,1.33
7075.0,1.31
7077.0,1.36
7079.0,1.33
7081.0,1.37
7084.0,1.38
7085.0,1.38
7087.0,1.62
7089.0,1.66
7091.0,1.5
7093.0,1.4
7095.0,1.33
7097.0,1.29
7099.0,1.08
7101.0,1.12
7103.0,1.39
7105.0,1.41
7107.0,1.46
7109.0,1.51
7111.0,1.44
7113.0,1.49
7115.0,1.45
7117.0,1.42
7119.0,1.4
7121.0,1.47
7123.0,1.52
7126.0,1.5
7128.0,1.68
7129.0,1.7
7131.0,1.66
7133.0,1.6
7135.0,1.52
7137.0,1.45
7139.0,1.4
7141.0,1.37
7143.0,1.44
7145.0,1.55
7147.0,1.71
7149.0,1.72
7151.0,1.63
7153.0,1.47
7155.0,1.5
7157.0,1.41
7159.0,1.53
7161.0,1.56
7163.0,1.52
7165.0,1.52
7168.0,1.54
7170.0,1.51
7172.0,1.58
7173.0,1.52
7175.0,1.46
7177.0,1.48
7179.0,1.37
7181.0,1.39
7183.0,1.43
7185.0,1.48
7187.0,1.73
7189.0,1.79
7191.0,1.51
7193.0,1.23
7195.0,1.33
7197.0,1.45
7199.0,1.31
7201.0,1.26
7203.0,1.35
7205.0,1.46
7207.0,1.62
7209.0,1.59
7212.0,1.54
7214.0,1.22
7216.0,1.29
7217.0,1.65
7219.0,1.39
7221.0,1.29
7223.0,1.27
7225.0,1.4
7227.0,1.49
7229.0,1.77
7231.0,1.67
7233.0,1.38
7235.0,1.11
7237.0,1.2
7239.0,1.61
7241.0,1.58
7243.0,1.5
7245.0,1.54
7247.0,1.61
7249.0,1.54
7251.0,1.56
7254.0,1.52
7256.0,1.35
7258.0,1.13
7259.0,1.03
7261.0,1.87
7263.0,1.85
7265.0,1.6
7267.0,1.61
7269.0,1.58
7271.0,1.58
7273.0,1.46
7275.0,1.29
7277.0,1.18
7279.0,1.11
7281.0,1.58
7283.0,1.42
7285.0,1.43
7287.0,1.48
7289.0,1.66
7291.0,1.83
7293.0,1.55
7296.0,1.3
7298.0,1.17
7300.0,1.51
7302.0,1.68
7303.0,1.59
7305.0,1.6
7307.0,1.62
7309.0,1.45
7311.0,1.58
7313.0,1.56
7315.0,1.59
7317.0,1.24
7319.0,1.13
7321.0,1.26
7323.0,1.72
7325.0,1.73
7327.0,1.96
7329.0,1.88
7331.0,1.67
7333.0,1.41
7335.0,1.42
7337.0,1.8
7340.0,1.56
7342.0,1.55
7344.0,1.53
7346.0,1.56
7347.0,1.88
7349.0,1.59
7351.0,1.36
7353.0,1.59
7355.0,1.47
7357.0,1.47
7359.0,1.53
7361.0,1.4
7363.0,2.06
7365.0,1.75
7367.0,1.57
7369.0,1.25
7371.0,1.64
7373.0,1.4
7375.0,1.19
7377.0,1.67
7379.0,1.63
7382.0,1.61
7384.0,2.06
7386.0,1.87
7388.0,1.83
7389.0,1.7
7391.0,1.44
7393.0,1.31
7395.0,1.22
7397.0,1.32
7399.0,1.36
7401.0,1.25
7403.0,1.05
7405.0,1.16
7407.0,1.82
7409.0,1.44
7411.0,1.4
7413.0,1.75
7415.0,1.55
7417.0,1.41
7419.0,1.37
7421.0,1.33
7424.0,1.45
7426.0,1.69
7428.0,1.67
7430.0,2.14
7432.0,2.16
7433.0,1.72
7435.0,1.61
7437.0,1.72
7439.0,1.52
7441.0,1.14
7443.0,1.09
7445.0,2.29
7447.0,2.17
7449.0,1.89
7451.0,1.78
7453.0,1.63
7455.0,1.75
7457.0,1.49
7459.0,1.32
7461.0,1.68
7463.0,1.66
7465.0,1.66
7468.0,2.02
7470.0,1.71
7472.0,1.83
7474.0,2.44
7476.0,2.28
7477.0,2.05
7479.0,1.91
7481.0,1.96
7483.0,2.18
7485.0,2.1
7487.0,1.87
7489.0,1.46
7491.0,1.73
7493.0,2.46
7495.0,2.16
7497.0,1.86
7499.0,1.49
7501.0,1.32
7503.0,1.17
7505.0,2.49
7507.0,1.98
7510.0,1.93
7512.0,1.74
7514.0,1.49
7516.0,1.5
7518.0,1.26
7520.0,1.12
7521.0,1.39
7523.0,1.29
7525.0,1.61
7527.0,1.77
7529.0,1.6
7531.0,1.35
7533.0,1.14
7535.0,1.21
7537.0,1.3
7539.0,1.27
7541.0,1.47
7543.0,1.35
7545.0,1.54
7547.0,1.52
7549.0,1.29
7552.0,1.41
7554.0,1.34
7556.0,1.06
7558.0,1.32
7560.0,1.34
7562.0,1.36
7564.0,1.38
7565.0,1.36
7567.0,1.57
7569.0,1.42
7571.0,1.46
7573.0,1.6
7575.0,1.45
7577.0,1.41
7579.0,1.39
7581.0,1.7
7583.0,1.79
7585.0,1.74
7587.0,1.78
7589.0,1.57
7591.0,1.6
7593.0,1.49
7596.0,1.4
7598.0,1.07
7600.0,1.08
7602.0,1.01
7604.0,1.35
7606.0,1.57
7608.0,1.44
7609.0,1.51
7611.0,1.36
7613.0,1.25
7615.0,1.15
7617.0,1.1
7619.0,1.12
7621.0,1.15
7623.0,1.23
7625.0,1.28
7627.0,1.32
7629.0,1.27
7631.0,1.07
7633.0,1.01
7635.0,1.35
7638.0,1.18
7640.0,1.08
7642.0,1.12
7644.0,1.08
7646.0,1.16
7648.0,1.13
7650.0,1.09
7652.0,1.14
7653.0,1.04
7655.0,1.07
7657.0,1.02
7659.0,0.94
7661.0,1.01
7663.0,1.14
7665.0,1.17
7667.0,1.45
7669.0,1.39
7671.0,1.28
7673.0,1.15
7675.0,1.08
7677.0,1.13
7680.0,1.16
7682.0,1.16
7684.0,1.09
7686.0,1.08
7688.0,1.11
7690.0,1.03
7692.0,1.13
7694.0,0.89
7696.0,0.96
7697.0,0.99
7699.0,0.96
7701.0,0.96
7703.0,0.99
7705.0,1.05
7707.0,1.05
7709.0,0.98
7711.0,0.94
7713.0,0.95
7715.0,0.86
7717.0,0.72
7719.0,1.05
7721.0,1.16
7724.0,1.01
7726.0,1.26
7728.0,1.28
7730.0,1.36
7732.0,1.32
7734.0,1.22
7736.0,1.22
7738.0,1.18
7739.0,1.15
7741.0,1.3
7743.0,1.6
7745.0,1.56
7747.0,1.45
7749.0,1.29
7751.0,1.45
7753.0,1.48
7755.0,1.59
7757.0,1.25
7759.0,1.32
7761.0,1.44
7763.0,1.43
7766.0,1.48
7768.0,1.48
7770.0,1.43
7772.0,1.61
7774.0,1.66
7776.0,1.43
7778.0,1.37
7780.0,1.38
7782.0,1.55
7783.0,1.61
7785.0,1.56
7787.0,1.57
7789.0,1.22
7791.0,1.49
7793.0,2.03
7795.0,1.7
7797.0,1.53
7799.0,1.55
7801.0,1.58
7803.0,1.64
7805.0,1.71
7808.0,1.77
7810.0,1.77
7812.0,1.72
7814.0,1.5
7816.0,1.58
7818.0,1.63
7820.0,1.55
7822.0,1.48
7824.0,1.5
7826.0,1.52
7827.0,1.58
7829.0,1.63
7831.0,1.76
7833.0,1.41
7835.0,1.22
7837.0,1.27
7839.0,1.36
7841.0,1.33
7843.0,1.37
7845.0,1.46
7847.0,1.66
7849.0,1.67
7852.0,1.5
7854.0,1.37
7856.0,1.32
7858.0,1.26
7860.0,1.27
7862.0,1.31
7864.0,1.39
7866.0,1.47
7868.0,1.56
7870.0,1.57
7871.0,1.51
7873.0,1.33
7875.0,1.18
7877.0,1.33
7879.0,1.44
7881.0,1.4
7883.0,1.52
7885.0,1.52
7887.0,1.43
7889.0,1.6
7891.0,1.59
7894.0,1.38
7896.0,1.36
7898.0,1.39
7900.0,1.36
7902.0,1.22
7904.0,1.38
7906.0,1.5
7908.0,1.79
7910.0,1.7
7912.0,1.65
7914.0,1.51
7915.0,1.5
7917.0,1.57
7919.0,1.51
7921.0,1.52
7923.0,1.54
7925.0,1.54
7927.0,1.73
7929.0,1.74
7931.0,1.6
7933.0,1.33
7936.0,1.53
7938.0,1.58
7940.0,1.44
7942.0,1.4
7944.0,1.59
7946.0,1.64
7948.0,1.64
7950.0,1.56
7952.0,1.39
7954.0,1.32
7956.0,1.48
7957.0,1.49
7959.0,1.47
7961.0,1.48
7963.0,1.53
7965.0,1.57
7967.0,1.65
7969.0,1.68
7971.0,1.6
7973.0,1.44
7975.0,1.39
7977.0,1.38
7980.0,1.38
7982.0,1.45
7984.0,1.47
7986.0,1.55
7988.0,1.65
7990.0,1.62
7992.0,1.46
7994.0,1.52
7996.0,1.57
7998.0,1.5
8000.0,1.5
8001.0,1.45
8003.0,1.5
8005.0,1.63
8007.0,1.67
8009.0,1.65
8011.0,1.65
8013.0,1.5
8015.0,1.45
8017.0,1.45
8019.0,1.45
8022.0,1.4
8024.0,1.4
8026.0,1.47
8028.0,1.75
8030.0,1.75
8032.0,1.69
8034.0,1.54
8036.0,1.41
8038.0,1.34
8040.0,1.48
8042.0,1.57
8044.0,1.54
8045.0,1.65
8047.0,1.71
8049.0,1.65
8051.0,1.63
8053.0,1.51
8055.0,1.42
8057.0,1.35
8059.0,1.39
8061.0,1.54
8064.0,1.35
8066.0,1.53
8068.0,1.81
8070.0,1.59
8072.0,1.49
8074.0,1.49
8076.0,1.48
8078.0,1.36
8080.0,1.36
8082.0,1.41
8084.0,1.36
8086.0,1.45
8087.0,1.68
8089.0,1.66
8091.0,1.49
8093.0,1.44
8095.0,1.6
8097.0,1.43
8099.0,1.4
8101.0,1.48
8103.0,1.42
8105.0,1.49
8108.0,1.6
8110.0,1.6
8112.0,1.44
8114.0,1.38
8116.0,1.39
8118.0,1.39
8120.0,1.33
8122.0,1.25
8124.0,1.34
8126.0,1.49
8128.0,1.63
8130.0,1.53
8131.0,1.4
8133.0,1.24
8135.0,1.21
8137.0,1.47
8139.0,1.37
8141.0,1.33
8143.0,1.45
8145.0,1.56
8147.0,1.63
8150.0,1.64
8152.0,1.51
8154.0,1.23
8156.0,1.38
8158.0,1.5
8160.0,1.43
8162.0,1.37
8164.0,1.32
8166.0,1.42
8168.0,1.59
8170.0,1.6
8172.0,1.47
8173.0,1.3
8175.0,1.18
8177.0,1.12
8179.0,1.16
8181.0,1.44
8183.0,1.45
8185.0,1.55
8187.0,1.66
8189.0,1.67
8192.0,1.54
8194.0,1.4
8196.0,1.46
8198.0,1.41
8200.0,1.41
8202.0,1.21
8204.0,1.35
8206.0,1.68
8208.0,1.67
8210.0,1.6
8212.0,1.5
8214.0,1.31
8216.0,1.36
8217.0,1.47
8219.0,1.45
8221.0,1.32
8223.0,1.35
8225.0,1.39
8227.0,1.55
8229.0,1.74
8231.0,1.47
8233.0,1.4
8236.0,1.34
8238.0,1.19
8240.0,1.36
8242.0,1.28
8244.0,1.32
8246.0,1.45
8248.0,1.65
8250.0,1.85
8252.0,1.69
8254.0,1.47
8256.0,1.38
8258.0,1.1
8259.0,1.38
8261.0,1.38
8263.0,1.2
8265.0,1.49
8267.0,1.96
8269.0,1.82
8271.0,1.61
8273.0,1.41
8275.0,1.36
8278.0,1.32
8280.0,1.41
8282.0,1.4
8284.0,1.33
8286.0,1.49
8288.0,1.6
8290.0,1.87
8292.0,1.52
8294.0,1.29
8296.0,1.43
8298.0,1.56
8300.0,1.52
8302.0,1.38
8303.0,1.09
8305.0,1.38
8307.0,2.08
8309.0,1.74
8311.0,1.55
8313.0,1.38
8315.0,1.39
8317.0,1.45
8320.0,1.48
8322.0,1.4
8324.0,1.44
8326.0,1.5
8328.0,1.41
8330.0,1.4
8332.0,1.66
8334.0,1.46
8336.0,1.05
8338.0,1.14
8340.0,1.66
8342.0,1.51
8344.0,1.24
8346.0,1.77
8347.0,1.73
8349.0,1.57
8351.0,1.63
8353.0,1.56
8355.0,1.38
8357.0,1.4
8359.0,1.26
8361.0,1.18
8364.0,1.56
8366.0,1.67
8368.0,1.47
8370.0,1.19
8372.0,1.5
8374.0,1.72
8376.0,1.77
8378.0,1.37
8380.0,1.61
8382.0,1.63
8384.0,1.53
8386.0,1.62
8388.0,1.51
8389.0,0.95
8391.0,1.09
8393.0,1.2
8395.0,1.2
8397.0,1.65
8399.0,2.31
8401.0,1.81
8403.0,1.51
8406.0,1.55
8408.0,1.65
8410.0,1.49
8412.0,1.84
8414.0,1.64
8416.0,1.6
8418.0,1.51
8420.0,1.35
8422.0,0.75
8424.0,1.23
8426.0,1.75
8428.0,2.06
8430.0,1.88
8432.0,1.57
8433.0,1.62
8435.0,1.55
8437.0,1.3
8439.0,1.35
8441.0,0.85
8443.0,0.91
8445.0,1.85
8448.0,1.68
8450.0,1.8
8452.0,1.93
8454.0,1.35
8456.0,0.95
8458.0,1.75
8460.0,1.68
8462.0,1.47
8464.0,1.35
8466.0,1.43
8468.0,1.75
8470.0,1.65
8472.0,1.35
8474.0,1.13
8476.0,1.08
8477.0,1.41
8479.0,1.33
8481.0,1.58
8483.0,1.72
8485.0,1.67
8487.0,1.38
8489.0,1.55
8492.0,1.84
8494.0,1.57
8496.0,1.21
8498.0,1.36
8500.0,1.51
8502.0,1.69
8504.0,1.61
8506.0,1.65
8508.0,1.71
8510.0,1.55
8512.0,1.48
8514.0,1.4
8516.0,1.71
8518.0,1.41
8519.0,1.46
8521.0,1.53
8523.0,1.69
8525.0,1.71
8527.0,1.66
8529.0,1.45
8531.0,1.26
8534.0,1.64
8536.0,1.61
8538.0,1.4
8540.0,1.49
8542.0,1.35
8544.0,1.09
8546.0,1.74
8548.0,2.22
8550.0,1.9
8552.0,1.55
8554.0,1.4
8556.0,1.47
8558.0,1.49
8560.0,1.39
8561.0,1.4
8563.0,1.65
8565.0,2.04
8567.0,1.83
8569.0,1.56
8571.0,1.62
8573.0,1.59
8576.0,1.39
8578.0,1.29
8580.0,1.45
8582.0,1.48
8584.0,1.58
8586.0,1.45
8588.0,1.38
8590.0,1.65
8592.0,1.7
8594.0,1.49
8596.0,1.42
8598.0,1.31
8600.0,1.3
8602.0,1.44
8604.0,1.37
8605.0,1.22
8607.0,1.43
8609.0,1.73
8611.0,1.7
8613.0,1.37
8615.0,1.26
8617.0,1.32
8620.0,1.33
8622.0,1.3
8624.0,1.16
8626.0,1.35
8628.0,1.48
8630.0,1.55
8632.0,1.62
8634.0,1.27
8636.0,1.19
8638.0,1.65
8640.0,1.41
8642.0,1.49
8644.0,1.46
8646.0,1.54
8648.0,1.58
8649.0,1.49
8651.0,1.36
8653.0,1.26
8655.0,1.3
8657.0,1.27
8659.0,1.22
8662.0,1.45
8664.0,1.47
8666.0,1.51
8668.0,1.53
8670.0,1.55
8672.0,1.51
8674.0,1.47
8676.0,1.44
8678.0,1.33
8680.0,1.34
8682.0,1.47
8684.0,1.51
8686.0,1.66
8688.0,1.57
8690.0,1.45
8691.0,1.4
8693.0,1.35
8695.0,1.32
8697.0,1.25
8699.0,1.34
8701.0,1.44
8704.0,1.45
8706.0,1.46
8708.0,1.45
8710.0,1.32
8712.0,1.42
8714.0,1.29
8716.0,1.23
8718.0,1.35
8720.0,1.3
8722.0,1.26
8724.0,1.11
8726.0,1.15
8728.0,1.43
8730.0,1.75
8732.0,1.43
8734.0,1.19
8735.0,1.21
8737.0,1.31
8739.0,1.34
8741.0,1.31
8743.0,1.3
8745.0,1.25
8748.0,1.08
8750.0,1.34
8752.0,1.65
8754.0,1.32
8756.0,1.16
8758.0,1.27
8760.0,1.21
8762.0,1.13
8764.0,1.16
8766.0,1.39
8768.0,1.49
8770.0,1.48
8772.0,1.37
8774.0,1.3
8776.0,1.29
8777.0,1.29
8779.0,1.26
8781.0,1.24
8783.0,1.28
8785.0,1.31
8787.0,1.5
8790.0,1.6
8792.0,1.49
8794.0,1.31
8796.0,1.31
8798.0,1.44
8800.0,1.41
8802.0,1.42
8804.0,1.49
8806.0,1.52
8808.0,1.33
8810.0,1.39
8812.0,1.84
8814.0,1.61
8816.0,1.51
8818.0,1.48
8820.0,1.4
8821.0,1.38
8823.0,1.54
8825.0,1.67
8827.0,1.6
8829.0,1.55
8832.0,1.48
8834.0,1.39
8836.0,1.38
8838.0,1.36
8840.0,1.37
8842.0,1.4
8844.0,1.4
8846.0,1.43
8848.0,1.47
8850.0,1.5
8852.0,1.68
8854.0,1.41
8856.0,1.36
8858.0,1.39
8860.0,1.4
8862.0,1.42
8864.0,1.43
8865.0,1.51
8867.0,1.63
8869.0,1.55
8871.0,1.52
8873.0,1.47
8876.0,1.37
8878.0,1.22
8880.0,1.35
8882.0,1.64
8884.0,1.56
8886.0,1.82
8888.0,1.79
8890.0,1.74
8892.0,1.56
8894.0,1.47
8896.0,1.33
8898.0,1.44
8900.0,1.58
8902.0,1.52
8904.0,1.62
8906.0,1.74
8907.0,1.75
8909.0,1.72
8911.0,1.57
8913.0,1.46
8915.0,1.47
8918.0,1.4
8920.0,1.44
8922.0,1.48
8924.0,1.52
8926.0,1.6
8928.0,1.59
8930.0,1.58
8932.0,1.52
8934.0,1.29
8936.0,1.5
8938.0,1.55
8940.0,1.46
8942.0,1.46
8944.0,1.52
8946.0,1.58
8948.0,1.61
8950.0,1.55
8951.0,1.38
8953.0,1.47
8955.0,1.46
8957.0,1.43
8960.0,1.51
8962.0,1.5
8964.0,1.48
8966.0,1.58
8968.0,1.64
8970.0,1.73
8972.0,1.56
8974.0,1.44
8976.0,1.4
8978.0,1.31
8980.0,1.34
8982.0,1.48
8984.0,1.65
8986.0,1.72
8988.0,1.73
8990.0,1.72
8992.0,1.58
8994.0,1.31
8995.0,1.3
8997.0,1.5
8999.0,1.67
9001.0,1.57
9004.0,1.49
9006.0,1.62
9008.0,1.72
9010.0,1.6
9012.0,1.36
9014.0,1.32
9016.0,1.33
9018.0,1.39
9020.0,1.35
9022.0,1.45
9024.0,1.48
9026.0,1.73
9028.0,1.68
9030.0,1.64
9032.0,1.54
9034.0,1.44
9036.0,1.44
9037.0,1.4
9039.0,1.43
9041.0,1.47
9043.0,1.5
9046.0,1.6
9048.0,1.61
9050.0,1.53
9052.0,1.37
9054.0,1.3
9056.0,1.5
9058.0,1.5
9060.0,1.52
9062.0,1.53
9064.0,1.44
9066.0,1.56
9068.0,1.61
9070.0,1.54
9072.0,1.49
9074.0,1.32
9076.0,1.29
9078.0,1.4
9080.0,1.49
9081.0,1.43
9083.0,1.4
9085.0,1.57
9088.0,1.58
9090.0,1.41
9092.0,1.32
9094.0,1.3
9096.0,1.4
9098.0,1.52
9100.0,1.49
9102.0,1.46
9104.0,1.45
9106.0,1.51
9108.0,1.54
9110.0,1.6
9112.0,1.49
9114.0,1.46
9116.0,1.47
9118.0,1.42
9120.0,1.46
9122.0,1.49
9124.0,1.55
9125.0,1.61
9127.0,1.74
9129.0,1.68
9132.0,1.52
9134.0,1.42
9136.0,1.37
9138.0,1.4
9140.0,1.37
9142.0,1.33
9144.0,1.38
9146.0,1.48
9148.0,1.55
9150.0,1.68
9152.0,1.64
9154.0,1.42
9156.0,1.4
9158.0,1.45
9160.0,1.52
9162.0,1.44
9164.0,1.48
9166.0,1.63
9168.0,1.56
9169.0,1.61
9171.0,1.54
9174.0,1.45
9176.0,1.42
9178.0,1.4
9180.0,1.41
9182.0,1.45
9184.0,1.56
9186.0,1.6
9188.0,1.59
9190.0,1.56
9192.0,1.46
9194.0,1.4
9196.0,1.5
9198.0,1.36
9200.0,1.29
9202.0,1.42
9204.0,1.47
9206.0,1.58
9208.0,1.56
9210.0,1.42
9212.0,1.47
9213.0,1.61
9216.0,1.49
9218.0,1.5
9220.0,1.38
9222.0,1.29
9224.0,1.45
9226.0,1.62
9228.0,1.53
9230.0,1.49
9232.0,1.53
9234.0,1.46
9236.0,1.35
9238.0,1.22
9240.0,1.37
9242.0,1.44
9244.0,1.31
9246.0,1.63
9248.0,1.7
9250.0,1.54
9252.0,1.73
9254.0,1.63
9255.0,1.46
9257.0,1.25
9260.0,1.14
9262.0,1.36
9264.0,1.7
9266.0,1.76
9268.0,1.37
9270.0,1.11
9272.0,1.76
9274.0,1.78
9276.0,1.51
9278.0,1.41
9280.0,1.32
9282.0,0.89
9284.0,1.56
9286.0,2.11
9288.0,1.8
9290.0,1.54
9292.0,1.62
9294.0,1.5
9296.0,1.4
9298.0,1.13
9299.0,1.22
9302.0,1.21
9304.0,1.69
9306.0,1.88
9308.0,1.6
9310.0,1.57
9312.0,1.39
9314.0,1.33
9316.0,1.38
9318.0,1.06
9320.0,0.98
9322.0,1.06
9324.0,1.58
9326.0,2.04
9328.0,1.92
9330.0,1.63
9332.0,1.35
9334.0,1.25
9336.0,1.27
9338.0,0.91
9340.0,0.89
9342.0,1.55
9344.0,1.85
9346.0,1.87
9348.0,1.64
9350.0,1.72
9352.0,1.74
9354.0,1.41
9356.0,1.08
9358.0,1.25
9360.0,1.79
9362.0,1.69
9364.0,1.65
9366.0,1.82
9368.0,1.95
9370.0,1.91
9372.0,1.53
9374.0,1.04
9376.0,1.25
9378.0,1.45
9380.0,1.04
9382.0,1.74
9384.0,1.94
9387.0,1.99
9388.0,1.95
9390.0,1.68
9392.0,1.5
9394.0,1.25
9396.0,1.1
9398.0,1.69
9400.0,1.34
9402.0,1.05
9404.0,1.63
9406.0,1.84
9408.0,1.6
9410.0,1.4
9412.0,1.34
9414.0,1.44
9416.0,1.41
9418.0,1.47
9420.0,1.24
9422.0,0.75
9424.0,1.45
9426.0,2.2
9428.0,2.05
9431.0,1.67
9432.0,1.36
9434.0,0.91
9436.0,0.75
9438.0,1.35
9440.0,1.79
9442.0,1.82
9444.0,1.64
9446.0,1.7
9448.0,1.88
9450.0,1.74
9452.0,1.22
9454.0,1.47
9456.0,1.65
9458.0,1.25
9460.0,1.13
9462.0,1.59
9464.0,1.56
9466.0,1.54
9468.0,1.27
9470.0,1.44
9473.0,1.52
9475.0,1.45
9476.0,1.26
9478.0,1.12
9480.0,1.46
9482.0,1.52
9484.0,1.32
9486.0,1.21
9488.0,1.47
9490.0,1.16
9492.0,1.41
9494.0,1.58
9496.0,1.62
9498.0,1.2
9500.0,0.89
9502.0,1.14
9504.0,1.71
9506.0,2.07
9508.0,1.78
9510.0,1.67
9512.0,1.56
9515.0,1.55
9517.0,1.5
9518.0,1.4
9520.0,1.32
9522.0,1.37
9524.0,1.39
9526.0,1.63
9528.0,1.64
9530.0,1.58
9532.0,1.26
9534.0,1.31
9536.0,1.58
9538.0,1.86
9540.0,1.67
9542.0,1.78
9544.0,1.95
9546.0,1.88
9548.0,1.86
9550.0,1.78
9552.0,1.47
9554.0,1.46
9556.0,1.55
9559.0,1.51
9561.0,1.53
9563.0,1.48
9564.0,1.5
9566.0,1.87
9568.0,1.96
9570.0,1.76
9572.0,1.55
9574.0,1.62
9576.0,1.51
9578.0,1.63
9580.0,1.67
9582.0,1.58
9584.0,1.6
9586.0,1.77
9588.0,1.69
9590.0,1.52
9592.0,1.32
9594.0,1.17
9596.0,1.12
9598.0,1.57
9601.0,1.53
9603.0,1.59
9605.0,1.69
9606.0,1.75
9608.0,1.69
9610.0,1.64
9612.0,1.41
9614.0,1.39
9616.0,1.5
9618.0,1.44
9620.0,1.42
9622.0,1.41
9624.0,1.46
9626.0,1.52
9628.0,1.49
9630.0,1.45
9632.0,1.3
9634.0,1.23
9636.0,1.18
9638.0,1.21
9640.0,1.38
9643.0,1.42
9645.0,1.39
9647.0,1.4
9649.0,1.31
9650.0,1.31
9652.0,1.22
9654.0,1.25
9656.0,1.23
9658.0,1.17
9660.0,1.13
9662.0,1.13
9664.0,1.17
9666.0,1.23
9668.0,1.41
9670.0,1.38
9672.0,1.16
9674.0,1.11
9676.0,1.0
9678.0,1.09
9680.0,1.15
9682.0,1.07
9684.0,1.3
9687.0,1.49
9689.0,1.32
9691.0,1.37
9692.0,1.35
9694.0,1.32
9696.0,1.22
9698.0,1.16
9700.0,1.22
9702.0,1.16
9704.0,1.19
9706.0,1.33
9708.0,1.56
9710.0,1.48
9712.0,1.16
9714.0,1.21
9716.0,1.32
9718.0,1.22
9720.0,1.32
9722.0,1.31
9724.0,1.35
9726.0,1.45
9729.0,1.6
9731.0,1.62
9733.0,1.35
9735.0,1.46
9736.0,1.46
9738.0,1.44
9740.0,1.44
9742.0,1.45
9744.0,1.5
9746.0,1.62
9748.0,1.61
9750.0,1.52
9752.0,1.34
9754.0,1.3
9756.0,1.38
9758.0,1.39
9760.0,1.37
9762.0,1.47
9764.0,1.6
9766.0,1.62
9768.0,1.64
9771.0,1.6
9773.0,1.4
9775.0,1.35
9777.0,1.35
9778.0,1.36
9780.0,1.38
9782.0,1.39
9784.0,1.31
9786.0,1.56
9788.0,1.72
9790.0,1.55
9792.0,1.38
9794.0,1.33
9796.0,1.26
9798.0,1.2
9800.0,1.33
9802.0,1.32
9804.0,1.41
9806.0,1.57
9808.0,1.62
9810.0,1.57
9812.0,1.4
9815.0,1.35
9817.0,1.29
9819.0,1.2
9821.0,1.27
9822.0,1.48
9824.0,1.63
9826.0,1.72
9828.0,1.68
9830.0,1.59
9832.0,1.47
9834.0,1.42
9836.0,1.31
9838.0,1.28
9840.0,1.47
9842.0,1.55
9844.0,1.59
9846.0,1.56
9848.0,1.65
9850.0,1.57
9852.0,1.37
9854.0,1.35
9857.0,1.35
9859.0,1.3
9861.0,1.35
9863.0,1.39
9865.0,1.48
9866.0,1.55
9868.0,1.46
9870.0,1.42
9872.0,1.38
9874.0,1.41
9876.0,1.42
9878.0,1.43
9880.0,1.42
9882.0,1.46
9884.0,1.55
9886.0,1.62
9888.0,1.57
9890.0,1.66
9892.0,1.52
9894.0,1.43
9896.0,1.44
9899.0,1.32
9901.0,1.33
9903.0,1.54
9905.0,1.67
9907.0,1.7
9909.0,1.64
9910.0,1.58
9912.0,1.44
9914.0,1.41
9916.0,1.38
9918.0,1.26
9920.0,1.34
9922.0,1.54
9924.0,1.6
9926.0,1.43
9928.0,1.41
9930.0,1.67
9932.0,1.62
9934.0,1.45
9936.0,1.45
9938.0,1.41
9940.0,1.42
9943.0,1.45
9945.0,1.53
9947.0,1.55
9949.0,1.52
9951.0,1.52
9953.0,1.38
9954.0,1.47
9956.0,1.45
9958.0,1.35
9960.0,1.39
9962.0,1.48
9964.0,1.55
9966.0,1.65
9968.0,1.62
9970.0,1.56
9972.0,1.41
9974.0,1.37
9976.0,1.38
9978.0,1.38
9980.0,1.42
9982.0,1.36
9985.0,1.41
9987.0,1.72
9989.0,1.71
9991.0,1.61
9993.0,1.52
9995.0,1.52
9996.0,1.42
9998.0,1.29
10000.0,1.43
10002.0,1.68
10004.0,1.6
10006.0,1.64
10008.0,1.67
10010.0,1.62
10012.0,1.41
10014.0,1.34
10016.0,1.35
10018.0,1.33
10020.0,1.34
10022.0,1.38
10024.0,1.48
10027.0,1.49
10029.0,1.57
10031.0,1.61
10033.0,1.42
10035.0,1.33
10037.0,1.33
10039.0,1.28
10040.0,1.39
10042.0,1.5
10044.0,1.53
10046.0,1.58
10048.0,1.57
10050.0,1.53
10052.0,1.37
10054.0,1.35
10056.0,1.38
10058.0,1.41
10060.0,1.43
10062.0,1.55
10064.0,1.55
10066.0,1.72
10068.0,1.66
10071.0,1.55
10073.0,1.46
10075.0,1.44
10077.0,1.42
10079.0,1.43
10081.0,1.45
10082.0,1.47
10084.0,1.53
10086.0,1.57
10088.0,1.58
10090.0,1.49
10092.0,1.34
10094.0,1.4
10096.0,1.41
10098.0,1.48
10100.0,1.4
10102.0,1.26
10104.0,1.37
10106.0,1.7
10108.0,1.55
10110.0,1.48
10113.0,1.31
10115.0,1.28
10117.0,1.43
10119.0,1.48
10121.0,1.47
10123.0,1.45
10125.0,1.44
10126.0,1.52
10128.0,1.6
10130.0,1.24
10132.0,1.09
10134.0,1.52
10136.0,1.78
10138.0,1.35
10140.0,1.04
10142.0,1.51
10144.0,1.96
10146.0,1.61
10148.0,1.75
10150.0,1.77
10152.0,1.62
10155.0,1.56
10157.0,1.42
10159.0,1.37
10161.0,1.24
10163.0,1.2
10165.0,1.12
10167.0,1.44
10168.0,1.87
10170.0,1.44
10172.0,0.86
10174.0,1.55
10176.0,1.66
10178.0,1.45
10180.0,1.34
10182.0,1.05
10184.0,1.47
10186.0,2.04
10188.0,1.7
10190.0,1.61
10192.0,1.45
10194.0,1.42
10196.0,1.25
10199.0,1.25
10201.0,1.75
10203.0,1.81
10205.0,1.91
10207.0,1.9
10209.0,1.7
10210.0,1.49
10212.0,1.53
10214.0,1.6
10216.0,1.77
10218.0,1.45
10220.0,0.9
10222.0,0.65
10224.0,1.84
10226.0,2.41
10228.0,1.99
10230.0,1.74
10232.0,1.53
10234.0,1.48
10236.0,1.34
10238.0,1.24
10241.0,0.84
10243.0,0.69
10245.0,1.94
10247.0,2.2
10249.0,2.21
10251.0,1.85
10253.0,1.55
10254.0,1.4
10256.0,1.18
10258.0,1.02
10260.0,1.48
10262.0,1.42
10264.0,1.3
10266.0,1.61
10268.0,1.56
10270.0,1.46
10272.0,1.45
10274.0,1.57
10276.0,1.39
10278.0,1.42
10280.0,1.43
10283.0,1.31
10285.0,1.05
10287.0,1.12
10289.0,1.83
10291.0,1.6
10293.0,1.43
10295.0,1.45
10296.0,1.37
10298.0,1.19
10300.0,0.92
10302.0,0.96
10304.0,1.68
10306.0,1.61
10308.0,1.17
10310.0,1.21
10312.0,1.73
10314.0,1.53
10316.0,1.22
10318.0,1.39
10320.0,1.38
10322.0,1.9
10324.0,1.9
10327.0,1.69
10329.0,1.45
10331.0,1.35
10333.0,1.14
10335.0,1.0
10337.0,1.01
10338.0,1.61
10340.0,1.35
10342.0,1.2
10344.0,1.16
10346.0,1.2
10348.0,1.38
10350.0,1.55
10352.0,1.21
10354.0,1.25
10356.0,1.58
10358.0,1.36
10360.0,1.21
10362.0,1.1
10364.0,1.54
10366.0,1.49
10369.0,1.25
10371.0,1.08
10373.0,1.0
10375.0,0.98
10377.0,1.12
10379.0,1.36
10381.0,1.24
10382.0,0.81
10384.0,1.05
10386.0,1.62
10388.0,1.81
10390.0,1.58
10392.0,1.39
10394.0,1.2
10396.0,1.04
10398.0,1.66
10400.0,1.44
10402.0,1.37
10404.0,1.5
10406.0,1.75
10408.0,1.82
10411.0,2.08
10413.0,1.73
10415.0,1.58
10417.0,1.65
10419.0,1.58
10421.0,1.59
10423.0,1.76
10424.0,1.8
10426.0,1.75
10428.0,1.86
10430.0,1.78
10432.0,1.65
10434.0,1.45
10436.0,1.13
10438.0,1.64
10440.0,1.88
10442.0,2.06
10444.0,1.92
10446.0,2.16
10448.0,2.34
10450.0,2.21
10452.0,2.0
10455.0,1.79
10457.0,1.83
10459.0,1.85
10461.0,1.67
10463.0,1.76
10465.0,1.91
10466.0,1.73
10468.0,1.76
10470.0,1.47
10472.0,1.5
10474.0,1.86
10476.0,1.51
10478.0,1.66
10480.0,1.88
10482.0,1.79
10484.0,1.6
10486.0,1.57
10488.0,1.9
10490.0,1.86
10492.0,1.44
10494.0,1.33
10497.0,1.15
10499.0,1.4
10501.0,1.7
10503.0,1.61
10505.0,1.65
10507.0,1.69
10509.0,1.68
10510.0,1.6
10512.0,1.39
10514.0,1.25
10516.0,1.34
10518.0,1.41
10520.0,1.35
10522.0,1.32
10524.0,1.51
10526.0,1.69
10528.0,1.79
10530.0,1.66
10532.0,1.52
10534.0,1.36
10536.0,1.25
10539.0,1.36
10541.0,1.37
10543.0,1.25
10545.0,1.16
10547.0,1.32
10549.0,1.91
10551.0,1.71
10552.0,1.47
10554.0,1.42
10556.0,1.37
10558.0,1.36
10560.0,1.36
10562.0,1.38
10564.0,1.39
10566.0,1.28
10568.0,1.29
10570.0,1.79
10572.0,1.45
10574.0,1.3
10576.0,1.34
10578.0,1.34
10580.0,1.25
10583.0,1.37
10585.0,1.45
10587.0,1.53
10589.0,1.55
10591.0,1.42
10593.0,1.23
10594.0,1.01
10596.0,0.93
10598.0,1.31
10600.0,1.57
10602.0,1.45
10604.0,1.51
10606.0,1.65
10608.0,1.57
10610.0,1.45
10612.0,1.31
10614.0,1.26
10616.0,1.16
10618.0,1.1
10620.0,1.51
10622.0,1.45
10625.0,1.32
10627.0,1.49
10629.0,1.5
10631.0,1.37
10633.0,1.27
10635.0,1.15
10637.0,1.04
10638.0,1.21
10640.0,1.26
10642.0,1.19
10644.0,1.24
10646.0,1.34
10648.0,1.27
10650.0,1.37
10652.0,1.35
10654.0,1.15
10656.0,1.24
10658.0,1.23
10660.0,1.1
10662.0,1.35
10664.0,1.43
10667.0,1.54
10669.0,1.58
10671.0,1.48
10673.0,1.34
10675.0,1.27
10677.0,1.1
10679.0,1.28
10680.0,1.42
10682.0,1.38
10684.0,1.56
10686.0,1.65
10688.0,1.51
10690.0,1.39
10692.0,1.31
10694.0,1.51
10696.0,1.37
10698.0,1.33
10700.0,1.32
10702.0,1.4
10704.0,1.45
10706.0,1.35
10708.0,1.52
10711.0,1.48
10713.0,1.2
10715.0,1.41
10717.0,1.4
10719.0,1.52
10721.0,1.58
10722.0,1.61
10724.0,1.62
10726.0,1.55
10728.0,1.6
10730.0,1.88
10732.0,1.92
10734.0,1.71
10736.0,1.65
10738.0,1.57
10740.0,1.52
10742.0,1.56
10744.0,1.76
10746.0,1.79
10748.0,1.77
10750.0,1.65
10753.0,1.51
10755.0,1.46
10757.0,1.42
10759.0,1.44
10761.0,1.49
10763.0,1.48
10765.0,1.54
10766.0,1.53
10768.0,1.79
10770.0,1.72
10772.0,1.26
10774.0,1.27
10776.0,1.57
10778.0,1.54
10780.0,1.49
10782.0,1.51
10784.0,1.65
10786.0,1.69
10788.0,1.63
10790.0,1.55
10792.0,1.44
10795.0,1.37
10797.0,1.3
10799.0,1.25
10801.0,1.15
10803.0,1.21
10805.0,1.63
10807.0,1.76
10808.0,1.67
10810.0,1.73
10812.0,1.5
10814.0,1.37
10816.0,1.45
10818.0,1.4
10820.0,1.46
10822.0,1.5
10824.0,1.59
10826.0,1.55
10828.0,1.47
10830.0,1.62
10832.0,1.54
10834.0,1.51
10836.0,1.44
10839.0,1.38
10841.0,1.34
10843.0,1.39
10845.0,1.57
10847.0,1.77
10849.0,1.68
10850.0,1.53
10852.0,1.37
10854.0,1.47
10856.0,1.55
10858.0,1.46
10860.0,1.49
10862.0,1.47
10864.0,1.56
10866.0,1.59
10868.0,1.59
10870.0,1.67
10872.0,1.44
10874.0,1.26
10876.0,1.4
10878.0,1.57
10881.0,1.47
10883.0,1.44
10885.0,1.51
10887.0,1.59
10889.0,1.6
10891.0,1.46
10893.0,1.34
10894.0,1.15
10896.0,1.48
10898.0,1.81
10900.0,1.59
10902.0,1.6
10904.0,1.64
10906.0,1.59
10908.0,1.56
10910.0,1.52
10912.0,1.4
10914.0,1.37
10916.0,1.32
10918.0,1.33
10920.0,1.32
10923.0,1.3
10925.0,1.53
10927.0,1.29
10929.0,1.55
10931.0,1.67
10933.0,1.53
10935.0,1.47
10936.0,1.39
10938.0,1.36
10940.0,1.4
10942.0,1.48
10944.0,1.56
10946.0,1.57
10948.0,1.59
10950.0,1.4
10952.0,1.37
10954.0,1.48
10956.0,1.41
10958.0,1.37
10960.0,1.47
10962.0,1.51
10964.0,1.51
10967.0,1.54
10969.0,1.53
10971.0,1.52
10973.0,1.5
10975.0,1.52
10977.0,1.49
10978.0,1.45
10980.0,1.42
10982.0,1.5
10984.0,1.72
10986.0,1.74
10988.0,1.74
10990.0,1.56
10992.0,1.37
10994.0,1.35
10996.0,1.39
10998.0,1.45
11000.0,1.33
11002.0,1.49
11004.0,1.72
11006.0,1.83
11009.0,1.69
11011.0,1.58
11013.0,1.46
11015.0,1.39
11017.0,1.39
11019.0,1.42
11021.0,1.35
11022.0,1.32
11024.0,1.47
11026.0,1.47
11028.0,1.45
11030.0,1.37
11032.0,1.25
11034.0,1.56
11036.0,1.52
11038.0,1.36
11040.0,1.32
11042.0,1.4
11044.0,1.41
11046.0,1.52
11048.0,1.46
11051.0,1.26
11053.0,1.11
11055.0,1.25
11057.0,1.45
11059.0,1.51
11061.0,1.25
11063.0,1.43
11064.0,1.52
11066.0,1.43
11068.0,1.22
11070.0,1.25
11072.0,1.53
11074.0,1.39
11076.0,1.37
11078.0,1.38
11080.0,1.27
11082.0,1.39
11084.0,1.62
11086.0,1.46
11088.0,1.45
11090.0,1.39
11092.0,1.32
11095.0,1.35
11097.0,1.21
11099.0,0.92
11101.0,0.85
11103.0,1.62
11105.0,1.81
11106.0,1.65
11108.0,1.71
11110.0,1.59
11112.0,1.25
11114.0,1.22
11116.0,1.15
11118.0,1.45
11120.0,1.41
11122.0,1.39
11124.0,1.57
11126.0,1.5
11128.0,1.53
11130.0,1.43
11132.0,1.44
11134.0,1.47
11137.0,1.37
11139.0,1.3
11141.0,1.56
11143.0,1.59
11145.0,1.5
11147.0,1.46
11149.0,1.26
11150.0,1.03
11152.0,1.36
11154.0,1.8
11156.0,1.64
11158.0,1.61
11160.0,1.54
11162.0,1.55
11164.0,1.64
11166.0,1.61
11168.0,1.45
11170.0,1.26
11172.0,1.35
11174.0,1.36
11176.0,1.13
11179.0,1.66
11181.0,1.88
11183.0,1.65
11185.0,1.46
11187.0,1.61
11189.0,1.71
11191.0,1.76
11192.0,1.06
11194.0,1.15
11196.0,1.66
11198.0,1.56
11200.0,1.41
11202.0,1.5
11204.0,1.92
11206.0,1.69
11208.0,1.31
11210.0,1.52
11212.0,1.82
11214.0,1.68
11216.0,1.43
11218.0,1.45
11220.0,1.21
11223.0,1.03
11225.0,1.68
11227.0,1.77
11229.0,1.27
11231.0,1.09
11233.0,1.12
11234.0,1.6
11236.0,1.19
11238.0,1.9
11240.0,2.04
11242.0,1.6
11244.0,1.42
11246.0,1.15
11248.0,1.2
11250.0,2.39
11252.0,2.05
11254.0,1.4
11256.0,0.72
11258.0,1.68
11260.0,1.8
11262.0,1.41
11265.0,1.8
11267.0,1.87
11269.0,1.95
11271.0,1.76
11273.0,1.74
11275.0,2.06
11277.0,1.67
11278.0,1.54
11280.0,1.37
11282.0,1.48
11284.0,1.72
11286.0,1.82
11288.0,1.74
11290.0,1.74
11292.0,1.8
11294.0,1.25
11296.0,1.55
11298.0,1.72
11300.0,1.23
11302.0,1.12
11304.0,0.69
11307.0,1.97
11309.0,1.9
11311.0,1.89
11313.0,1.51
11315.0,1.42
11317.0,1.58
11319.0,1.4
11320.0,1.3
11322.0,0.74
11324.0,1.17
11326.0,2.29
11328.0,1.89
11330.0,1.56
11332.0,1.26
11334.0,1.22
11336.0,1.64
11338.0,1.45
11340.0,1.51
11342.0,1.37
11344.0,1.72
11346.0,1.81
11348.0,1.82
11351.0,1.65
11353.0,1.29
11355.0,1.21
11357.0,0.94
11359.0,0.51
11361.0,0.91
11362.0,1.64
11364.0,1.87
11366.0,1.55
11368.0,1.51
11370.0,1.42
11372.0,1.14
11374.0,1.06
11376.0,1.0
11378.0,1.35
11380.0,1.33
11382.0,1.42
11384.0,1.31
11386.0,1.2
11388.0,1.84
11390.0,1.63
11393.0,1.32
11395.0,1.1
11397.0,0.66
11399.0,1.21
11401.0,1.15
11403.0,1.46
11405.0,1.83
11406.0,1.34
11408.0,1.25
11410.0,1.15
11412.0,1.1
11414.0,1.01
11416.0,1.59
11418.0,1.67
11420.0,1.56
11422.0,1.49
11424.0,1.56
11426.0,1.57
11428.0,1.45
11430.0,1.34
11432.0,1.26
11435.0,1.18
11437.0,1.23
11439.0,1.39
11441.0,1.54
11443.0,1.45
11445.0,1.52
11447.0,1.46
11448.0,1.4
11450.0,1.18
11452.0,0.81
11454.0,1.49
11456.0,1.61
11458.0,1.46
11460.0,1.7
11462.0,1.56
11464.0,1.35
11466.0,1.29
11468.0,1.79
11470.0,1.57
11472.0,1.47
11474.0,1.32
11476.0,1.18
11479.0,1.45
11481.0,1.6
11483.0,1.35
11485.0,1.69
11487.0,1.46
11489.0,1.38
11490.0,1.76
11492.0,1.63
11494.0,1.45
11496.0,1.41
11498.0,1.45
11500.0,1.49
11502.0,1.59
11504.0,1.76
11506.0,1.64
11508.0,1.68
11510.0,1.57
11512.0,1.65
11514.0,1.63
11516.0,1.42
11518.0,1.5
11521.0,1.46
11523.0,1.78
11525.0,2.05
11527.0,1.95
11529.0,1.81
11531.0,1.5
11533.0,1.51
11534.0,1.62
11536.0,1.51
11538.0,1.45
11540.0,1.42
11542.0,1.45
11544.0,1.39
11546.0,1.35
11548.0,1.71
11550.0,1.68
11552.0,1.45
11554.0,1.37
11556.0,1.31
11558.0,1.35
11560.0,1.37
11563.0,1.4
11565.0,1.43
11567.0,1.62
11569.0,1.63
11571.0,1.43
11573.0,1.35
11575.0,1.38
11576.0,1.16
11578.0,1.15
11580.0,1.54
11582.0,1.55
11584.0,1.57
11586.0,1.58
11588.0,1.38
11590.0,1.38
11592.0,1.34
11594.0,1.35
11596.0,1.28
11598.0,1.11
11600.0,1.27
11602.0,1.54
11604.0,1.52
11607.0,1.44
11609.0,1.44
11611.0,1.26
11613.0,1.15
11615.0,1.18
11617.0,1.17
11618.0,1.28
11620.0,1.42
11622.0,1.46
11624.0,1.42
11626.0,1.65
11628.0,1.65
11630.0,1.41
11632.0,1.35
11634.0,1.43
11636.0,1.21
11638.0,1.33
11640.0,1.29
11642.0,1.85
11644.0,1.84
11646.0,1.76
11649.0,1.73
11651.0,1.57
11653.0,1.43
11655.0,1.5
11657.0,1.6
11659.0,1.49
11661.0,1.42
11662.0,1.4
11664.0,1.39
11666.0,1.54
11668.0,1.7
11670.0,1.55
11672.0,1.44
11674.0,1.35
11676.0,1.33
11678.0,1.34
11680.0,1.44
11682.0,1.48
11684.0,1.54
11686.0,1.43
11688.0,1.66
11691.0,1.54
11693.0,1.54
11695.0,1.57
11697.0,1.4
11699.0,1.38
11701.0,1.59
11703.0,1.61
11704.0,1.64
11706.0,1.59
11708.0,1.58
11710.0,1.45
11712.0,1.3
11714.0,1.35
11716.0,1.43
11718.0,1.55
11720.0,1.37
11722.0,1.33
11724.0,1.69
11726.0,1.68
11728.0,1.72
11730.0,1.64
11732.0,1.53
11735.0,1.46
11737.0,1.39
11739.0,1.37
11741.0,1.44
11743.0,1.34
11745.0,1.43
11747.0,1.95
11748.0,1.66
11750.0,1.5
11752.0,1.54
11754.0,1.56
11756.0,1.46
11758.0,1.44
11760.0,1.41
11762.0,1.39
11764.0,1.51
11766.0,1.52
11768.0,1.51
11770.0,1.43
11772.0,1.27
11774.0,1.29
11777.0,1.35
11779.0,1.3
11781.0,1.35
11783.0,1.52
11785.0,1.66
11787.0,1.58
11789.0,1.39
11790.0,1.53
11792.0,1.38
11794.0,1.31
11796.0,1.28
11798.0,1.33
11800.0,1.29
11802.0,1.21
11804.0,1.42
11806.0,1.45
11808.0,1.62
11810.0,1.52
11812.0,1.27
11814.0,1.25
11816.0,1.29
11819.0,1.6
11821.0,1.47
11823.0,1.37
11825.0,1.53
11827.0,1.41
11829.0,1.38
11831.0,1.55
11832.0,1.46
11834.0,1.39
11836.0,1.35
11838.0,1.34
11840.0,1.27
11842.0,1.29
11844.0,1.67
11846.0,1.63
11848.0,1.47
11850.0,1.43
11852.0,1.38
11854.0,1.42
11856.0,1.49
11858.0,1.42
11860.0,1.32
11863.0,1.27
11865.0,1.32
11867.0,1.35
11869.0,1.77
11871.0,1.49
11873.0,1.29
11875.0,1.28
11876.0,1.28
11878.0,1.37
11880.0,1.4
11882.0,1.44
11884.0,1.51
11886.0,1.47
11888.0,1.49
11890.0,1.42
11892.0,1.2
11894.0,1.25
11896.0,1.4
11898.0,1.44
11900.0,1.38
11902.0,1.42
11905.0,1.68
11907.0,1.69
11909.0,1.61
11911.0,1.46
11913.0,1.39
11915.0,1.31
11917.0,1.23
11918.0,1.49
11920.0,1.85
11922.0,1.75
11924.0,1.73
11926.0,1.74
11928.0,1.68
11930.0,1.42
11932.0,1.35
11934.0,1.39
11936.0,1.43
11938.0,1.44
11940.0,1.46
11942.0,1.41
11944.0,1.48
11947.0,1.79
11949.0,1.68
11951.0,1.46
11953.0,1.5
11955.0,1.42
11957.0,1.4
11959.0,1.43
11960.0,1.43
11962.0,1.45
11964.0,1.51
11966.0,1.43
11968.0,1.5
11970.0,1.55
11972.0,1.35
11974.0,1.29
11976.0,1.37
11978.0,1.38
11980.0,1.4
11982.0,1.2
11984.0,1.62
11986.0,1.85
11988.0,1.69
11991.0,1.5
11993.0,1.33
11995.0,1.26
11997.0,1.31
11999.0,1.43
12001.0,1.37
12003.0,1.33
12004.0,1.66
12006.0,1.64
12008.0,1.52
12010.0,1.39
12012.0,1.26
12014.0,1.31
12016.0,1.37
12018.0,1.35
12020.0,1.31
12022.0,1.32
12024.0,1.57
12026.0,1.55
12028.0,1.63
12030.0,1.61
12033.0,1.48
12035.0,1.36
12037.0,1.38
12039.0,1.41
12041.0,1.49
12043.0,1.63
12045.0,1.77
12046.0,1.69
12048.0,1.59
12050.0,1.36
12052.0,1.19
12054.0,1.58
12056.0,1.46
12058.0,1.41
12060.0,1.54
12062.0,1.53
12064.0,1.56
12066.0,1.61
12068.0,1.49
12070.0,1.36
12072.0,1.49
12075.0,1.45
12077.0,1.39
12079.0,1.47
12081.0,1.45
12083.0,1.55
12085.0,1.42
12087.0,1.71
12088.0,1.67
12090.0,1.48
12092.0,1.41
12094.0,1.35
12096.0,1.36
12098.0,1.46
12100.0,1.45
12102.0,1.47
12104.0,1.43
12106.0,1.66
12108.0,1.64
12110.0,1.51
12112.0,1.55
12114.0,1.53
12116.0,1.38
12119.0,1.37
12121.0,1.45
12123.0,1.36
12125.0,1.5
12127.0,1.71
12129.0,1.68
12131.0,1.51
12132.0,1.28
12134.0,1.26
12136.0,1.25
12138.0,1.4
12140.0,1.65
12142.0,1.65
12144.0,1.67
12146.0,1.66
12148.0,1.51
12150.0,1.29
12152.0,1.27
12154.0,1.44
12156.0,1.28
12158.0,1.36
12161.0,1.44
12163.0,1.47
12165.0,1.52
12167.0,1.61
12169.0,1.58
12171.0,1.53
12173.0,1.38
12174.0,1.39
12176.0,1.44
12178.0,1.35
12180.0,1.27
12182.0,1.45
12184.0,1.45
12186.0,1.24
12188.0,1.29
12190.0,1.84
12192.0,1.73
12194.0,1.53
12196.0,1.45
12198.0,1.47
12200.0,1.5
12203.0,1.5
12205.0,1.51
12207.0,1.52
12209.0,1.53
12211.0,1.43
12213.0,1.51
12215.0,1.55
12217.0,1.46
12218.0,1.33
12220.0,1.2
12222.0,1.49
12224.0,1.82
12226.0,1.72
12228.0,1.63
12230.0,1.47
12232.0,1.27
12234.0,1.18
12236.0,1.21
12238.0,1.22
12240.0,1.75
12242.0,1.71
12244.0,1.59
12247.0,1.61
12249.0,1.48
12251.0,1.16
12253.0,1.3
12255.0,1.71
12257.0,1.54
12259.0,1.3
12260.0,1.03
12262.0,1.2
12264.0,1.88
12266.0,1.81
12268.0,1.41
12270.0,1.23
12272.0,1.44
12274.0,1.41
12276.0,1.45
12278.0,1.38
12280.0,1.53
12282.0,1.7
12284.0,1.76
12286.0,1.52
12289.0,1.39
12291.0,1.39
12293.0,1.5
12295.0,1.4
12297.0,1.12
12299.0,1.42
12301.0,1.53
12302.0,1.49
12304.0,1.25
12306.0,0.83
12308.0,1.13
12310.0,1.64
12312.0,1.78
12314.0,1.48
12316.0,1.79
12318.0,1.73
12320.0,1.52
12322.0,1.44
12324.0,1.69
12326.0,1.69
12328.0,1.45
12331.0,1.46
12333.0,1.69
12335.0,1.32
12337.0,1.3
12339.0,1.48
12341.0,1.48
12343.0,1.3
12345.0,1.74
12346.0,2.07
12348.0,1.78
12350.0,1.41
12352.0,1.46
12354.0,1.53
12356.0,1.71
12358.0,1.59
12360.0,1.39
12362.0,1.72
12364.0,1.49
12366.0,1.07
12368.0,1.67
12370.0,2.15
12372.0,1.78
12375.0,1.43
12377.0,1.25
12379.0,1.44
12381.0,1.24
12383.0,1.33
12385.0,1.7
12387.0,1.71
12388.0,1.68
12390.0,1.32
12392.0,0.8
12394.0,1.03
12396.0,1.84
12398.0,1.54
12400.0,1.24
12402.0,0.78
12404.0,1.39
12406.0,2.1
12408.0,1.88
12410.0,1.72
12412.0,1.48
12414.0,1.47
12417.0,1.77
12419.0,1.48
12421.0,1.43
12423.0,1.55
12425.0,1.48
12427.0,1.59
12429.0,1.52
12430.0,1.28
12432.0,0.98
12434.0,1.34
12436.0,1.36
12438.0,1.48
12440.0,1.7
12442.0,1.76
12444.0,1.87
12446.0,1.67
12448.0,1.12
12450.0,1.28
12452.0,1.84
12454.0,1.29
12456.0,1.12
12459.0,1.42
12461.0,1.74
12463.0,1.69
12465.0,1.62
12467.0,1.38
12469.0,1.54
12471.0,1.59
12473.0,1.42
12474.0,1.29
12476.0,1.12
12478.0,0.82
12480.0,1.0
12482.0,1.74
12484.0,1.46
12486.0,1.45
12488.0,1.65
12490.0,1.25
12492.0,1.61
12494.0,1.53
12496.0,1.49
12498.0,1.3
12500.0,1.06
12503.0,1.09
12505.0,1.74
12507.0,1.77
12509.0,1.7
12511.0,1.39
12513.0,1.31
12515.0,1.42
12516.0,1.37
12518.0,1.37
12520.0,1.51
12522.0,1.36
12524.0,1.45
12526.0,1.7
12528.0,1.65
12530.0,1.3
12532.0,1.41
12534.0,1.46
12536.0,1.25
12538.0,1.36
12540.0,1.52
12542.0,1.43
12545.0,1.64
12547.0,1.65
12549.0,1.72
12551.0,1.25
12553.0,1.34
12555.0,1.38
12557.0,1.33
12558.0,1.73
12560.0,1.69
12562.0,1.69
12564.0,1.81
12566.0,1.69
12568.0,1.65
12570.0,1.45
12572.0,1.35
12574.0,1.32
12576.0,1.48
12578.0,1.46
12580.0,1.46
12582.0,1.55
12584.0,1.54
12587.0,1.5
12589.0,1.87
12591.0,1.89
12593.0,1.57
12595.0,1.54
12597.0,1.66
12599.0,1.6
12601.0,1.4
12602.0,1.24
12604.0,1.57
12606.0,1.72
12608.0,1.69
12610.0,1.75
12612.0,1.54
12614.0,1.48
12616.0,1.39
12618.0,1.36
12620.0,1.47
12622.0,1.51
12624.0,1.48
12626.0,1.62
12628.0,1.58
12631.0,1.41
12633.0,1.27
12635.0,1.25
12637.0,1.28
12639.0,1.46
12641.0,1.38
12643.0,1.21
12644.0,1.41
12646.0,1.79
12648.0,1.66
12650.0,1.38
12652.0,1.24
12654.0,1.33
12656.0,1.5
12658.0,1.47
12660.0,1.39
12662.0,1.47
12664.0,1.66
12666.0,1.64
12668.0,1.51
12670.0,1.36
12673.0,1.37
12675.0,1.44
12677.0,1.39
12679.0,1.37
12681.0,1.49
12683.0,1.67
12685.0,1.68
12686.0,1.66
12688.0,1.64
12690.0,1.51
12692.0,1.46
12694.0,1.4
12696.0,1.27
12698.0,1.33
12700.0,1.57
12702.0,1.57
12704.0,1.6
12706.0,1.66
12708.0,1.68
12710.0,1.45
12712.0,1.37
12715.0,1.36
12717.0,1.6
12719.0,1.58
12721.0,1.44
12723.0,1.61
12725.0,1.85
12727.0,1.71
12729.0,1.53
12730.0,1.37
12732.0,1.54
12734.0,1.46
12736.0,1.26
12738.0,1.39
12740.0,1.39
12742.0,1.49
12744.0,1.91
12746.0,1.72
12748.0,1.66
12750.0,1.43
12752.0,1.49
12754.0,1.48
12756.0,1.45
12759.0,1.44
12761.0,1.44
12763.0,1.49
12765.0,1.57
12767.0,1.58
12769.0,1.53
12771.0,1.33
12772.0,1.23
12774.0,1.25
12776.0,1.42
12778.0,1.67
12780.0,1.57
12782.0,1.49
12784.0,1.55
12786.0,1.44
12788.0,1.5
12790.0,1.39
12792.0,1.17
12794.0,1.19
12796.0,1.21
12798.0,1.52
12801.0,1.45
12803.0,1.38
12805.0,1.71
12807.0,1.64
12809.0,1.69
12811.0,1.57
12813.0,1.44
12814.0,1.44
12816.0,1.23
12818.0,1.39
12820.0,1.5
12822.0,1.53
12824.0,1.62
12826.0,1.6
12828.0,1.48
12830.0,1.37
12832.0,1.36
12834.0,1.18
12836.0,1.19
12838.0,1.34
12840.0,1.42
12843.0,1.45
12845.0,1.45
12847.0,1.49
12849.0,1.36
12851.0,1.14
12853.0,1.22
12855.0,1.11
12857.0,1.17
12858.0,1.35
12860.0,1.24
12862.0,1.36
12864.0,1.41
12866.0,1.67
12868.0,1.55
12870.0,1.25
12872.0,1.21
12874.0,1.35
12876.0,1.22
12878.0,1.2
12880.0,1.26
12882.0,1.36
12884.0,1.68
12887.0,1.66
12889.0,1.56
12891.0,1.48
12893.0,1.41
12895.0,1.36
12897.0,1.35
12899.0,1.36
12900.0,1.51
12902.0,1.48
12904.0,1.57
12906.0,1.64
12908.0,1.54
12910.0,1.36
12912.0,1.35
12914.0,1.35
12916.0,1.38
12918.0,1.33
12920.0,1.39
12922.0,1.52
12924.0,1.67
12926.0,1.57
12929.0,1.45
12931.0,1.46
12933.0,1.45
12935.0,1.37
12937.0,1.34
12939.0,1.47
12941.0,1.51
12942.0,1.48
12944.0,1.43
12946.0,1.41
12948.0,1.78
12950.0,1.65
12952.0,1.47
12954.0,1.34
12956.0,1.29
12958.0,1.32
12960.0,1.38
12962.0,1.51
12964.0,1.68
12966.0,1.65
12968.0,1.56
12971.0,1.38
12973.0,1.34
12975.0,1.2
12977.0,1.17
12979.0,1.55
12981.0,1.58
12983.0,1.55
12985.0,1.56
12986.0,1.54
12988.0,1.47
12990.0,1.32
12992.0,1.34
12994.0,1.22
12996.0,1.16
12998.0,1.13
13000.0,1.35
13002.0,1.5
13004.0,1.5
13006.0,1.53
13008.0,1.54
13010.0,1.31
13012.0,1.32
13015.0,1.3
13017.0,1.39
13019.0,1.45
13021.0,1.41
13023.0,1.4
13025.0,1.4
13027.0,1.53
13028.0,1.47
13030.0,1.55
13032.0,1.56
13034.0,1.46
13036.0,1.45
13038.0,1.42
13040.0,1.34
13042.0,1.47
13044.0,1.63
13046.0,1.57
13048.0,1.56
13050.0,1.4
13052.0,1.32
13054.0,1.37
13057.0,1.15
13059.0,1.31
13061.0,1.44
13063.0,1.55
13065.0,1.64
13067.0,1.59
13069.0,1.47
13070.0,1.29
13072.0,1.44
13074.0,1.5
13076.0,1.36
13078.0,1.56
13080.0,1.53
13082.0,1.51
13084.0,1.58
13086.0,1.49
13088.0,1.43
13090.0,1.3
13092.0,1.32
13094.0,1.32
13096.0,1.38
13099.0,1.36
13101.0,1.33
13103.0,1.45
13105.0,1.67
13107.0,1.66
13109.0,1.48
13111.0,1.33
13113.0,1.6
13114.0,1.5
13116.0,1.43
13118.0,1.55
13120.0,1.51
13122.0,1.51
13124.0,1.67
13126.0,1.64
13128.0,1.58
13130.0,1.46
13132.0,1.12
13134.0,1.41
13136.0,1.77
13138.0,1.65
13140.0,1.61
13143.0,1.65
13145.0,1.64
13147.0,1.64
13149.0,1.59
13151.0,1.38
13153.0,1.35
13155.0,1.33
13156.0,1.33
13158.0,1.29
13160.0,1.38
13162.0,1.57
13164.0,1.55
13166.0,1.5
13168.0,1.5
13170.0,1.54
13172.0,1.43
13174.0,1.34
13176.0,1.45
13178.0,1.42
13180.0,1.43
13182.0,1.61
13185.0,1.79
13187.0,1.72
13189.0,1.7
13191.0,1.49
13193.0,1.35
13195.0,1.35
13197.0,1.48
13198.0,1.43
13200.0,1.28
13202.0,1.55
13204.0,1.6
13206.0,1.39
13208.0,1.41
13210.0,1.51
13212.0,1.76
13214.0,1.46
13216.0,1.2
13218.0,1.2
13220.0,1.33
13222.0,1.8
13224.0,1.91
13227.0,1.84
13229.0,1.68
13231.0,1.35
13233.0,1.43
13235.0,1.42
13237.0,1.39
13239.0,1.32
13241.0,1.41
13242.0,1.34
13244.0,1.48
13246.0,1.49
13248.0,1.36
13250.0,1.4
13252.0,1.45
13254.0,1.32
13256.0,1.22
13258.0,1.2
13260.0,1.11
13262.0,1.58
13264.0,1.81
13266.0,1.69
13268.0,1.59
13271.0,1.35
13273.0,1.26
13275.0,0.99
13277.0,0.82
13279.0,1.35
13281.0,1.77
13283.0,2.08
13284.0,1.91
13286.0,1.8
13288.0,1.65
13290.0,1.57
13292.0,1.51
13294.0,1.3
13296.0,1.27
13298.0,1.41
13300.0,1.4
13302.0,1.32
13304.0,1.14
13306.0,1.83
13308.0,1.93
13310.0,1.65
13313.0,1.43
13315.0,1.45
13317.0,1.39
13319.0,1.13
13321.0,1.65
13323.0,1.71
13325.0,1.16
13327.0,1.38
13328.0,2.04
13330.0,1.75
13332.0,1.47
13334.0,1.43
13336.0,1.37
13338.0,1.22
13340.0,1.2
13342.0,1.61
13344.0,1.75
13346.0,1.6
13348.0,1.54
13350.0,1.04
13352.0,0.95
13355.0,1.44
13357.0,1.73
13359.0,1.53
13361.0,1.21
13363.0,1.52
13365.0,1.65
13367.0,1.35
13369.0,1.37
13370.0,1.3
13372.0,1.85
13374.0,1.89
13376.0,1.7
13378.0,1.66
13380.0,1.51
13382.0,1.05
13384.0,1.12
13386.0,1.68
13388.0,1.99
13390.0,1.5
13392.0,1.55
13394.0,1.49
13396.0,1.45
13399.0,1.38
13401.0,1.41
13403.0,1.59
13405.0,1.66
13407.0,1.33
13409.0,1.67
13411.0,1.75
13412.0,1.58
13414.0,1.27
13416.0,1.12
13418.0,1.34
13420.0,1.04
13422.0,1.3
13424.0,1.69
13426.0,1.53
13428.0,1.62
13430.0,1.31
13432.0,1.06
13434.0,1.5
13436.0,1.42
13438.0,1.28
13441.0,1.27
13443.0,1.49
13445.0,1.5
13447.0,1.41
13449.0,1.63
13451.0,1.55
13453.0,1.56
13455.0,1.3
13456.0,1.29
13458.0,1.47
13460.0,1.53
13462.0,1.53
13464.0,1.7
13466.0,1.83
13468.0,1.51
13470.0,1.28
13472.0,1.95
13474.0,1.67
13476.0,1.48
13478.0,1.39
13480.0,1.47
13483.0,1.68
13485.0,1.59
13487.0,1.31
13489.0,1.47
13491.0,1.66
13493.0,1.6
13495.0,1.47
13497.0,1.41
13498.0,1.29
13500.0,1.38
13502.0,1.18
13504.0,1.35
13506.0,1.71
13508.0,1.58
13510.0,1.46
13512.0,1.77
13514.0,1.56
13516.0,1.55
13518.0,1.45
13520.0,1.5
13522.0,1.52
13524.0,1.55
13527.0,1.61
13529.0,1.48
13531.0,1.25
13533.0,1.2
13535.0,1.26
13537.0,1.41
13539.0,1.22
13540.0,1.37
13542.0,1.81
13544.0,1.83
13546.0,1.65
13548.0,1.52
13550.0,1.26
13552.0,1.14
13554.0,1.35
13556.0,1.35
13558.0,1.76
13560.0,1.6
13562.0,1.66
13564.0,1.58
13566.0,1.38
13569.0,1.36
13571.0,1.5
13573.0,1.4
13575.0,1.29
13577.0,1.08
13579.0,1.09
13581.0,1.48
13583.0,1.57
13584.0,1.49
13586.0,1.41
13588.0,1.43
13590.0,1.29
13592.0,1.15
13594.0,1.01
13596.0,1.09
13598.0,1.45
13600.0,1.35
13602.0,1.45
13604.0,1.52
13606.0,1.5
13608.0,1.41
13611.0,1.34
13613.0,1.38
13615.0,1.19
13617.0,1.03
13619.0,1.44
13621.0,1.42
13623.0,1.75
13625.0,1.9
13626.0,1.71
13628.0,1.55
13630.0,1.41
13632.0,1.42
13634.0,1.34
13636.0,1.34
13638.0,1.39
13640.0,1.46
13642.0,1.57
13644.0,1.64
13646.0,1.62
13648.0,1.36
13650.0,1.26
13652.0,1.55
13655.0,1.49
13657.0,1.38
13659.0,1.27
13661.0,1.47
13663.0,1.6
13665.0,1.56
13667.0,1.41
13668.0,1.28
13670.0,1.64
13672.0,1.74
13674.0,1.58
13676.0,1.71
13678.0,1.71
13680.0,1.68
13682.0,1.78
13684.0,1.85
13686.0,1.7
13688.0,1.5
13690.0,1.49
13692.0,1.52
13694.0,1.76
13697.0,1.84
13699.0,1.74
13701.0,1.7
13703.0,1.73
13705.0,1.64
13707.0,1.44
13709.0,1.16
13711.0,1.76
13712.0,1.8
13714.0,1.55
13716.0,1.47
13718.0,1.5
13720.0,1.61
13722.0,1.7
13724.0,1.72
13726.0,1.52
13728.0,1.34
13730.0,1.38
13732.0,1.41
13734.0,1.48
13736.0,1.4
13739.0,1.44
13741.0,1.45
13743.0,1.47
13745.0,1.49
13747.0,1.67
13749.0,1.53
13751.0,1.52
13753.0,1.37
13754.0,1.25
13756.0,1.39
13758.0,1.48
13760.0,1.34
13762.0,1.52
13764.0,1.54
13766.0,1.4
13768.0,1.25
13770.0,1.35
13772.0,1.5
13774.0,1.44
13776.0,1.42
13778.0,1.4
13780.0,1.46
13783.0,1.65
13785.0,1.53
13787.0,1.28
13789.0,1.42
13791.0,1.48
13793.0,1.44
13795.0,1.43
13796.0,1.49
13798.0,1.46
13800.0,1.52
13802.0,1.5
13804.0,1.57
13806.0,1.56
13808.0,1.55
13810.0,1.59
13812.0,1.47
13814.0,1.32
13816.0,1.26
13818.0,1.46
13820.0,1.37
13822.0,1.59
13825.0,1.73
13827.0,1.55
13829.0,1.39
13831.0,1.29
13833.0,1.3
13835.0,1.28
13837.0,1.22
13839.0,1.19
13840.0,1.25
13842.0,1.32
13844.0,1.29
13846.0,1.47
13848.0,1.62
13850.0,1.42
13852.0,1.37
13854.0,1.3
13856.0,1.3
13858.0,1.29
13860.0,1.35
13862.0,1.45
13864.0,1.51
13867.0,1.49
13869.0,1.49
13871.0,1.32
13873.0,1.32
13875.0,1.37
13877.0,1.39
13879.0,1.27
13881.0,1.32
13882.0,1.57
13884.0,1.65
13886.0,1.54
13888.0,1.55
13890.0,1.52
13892.0,1.45
13894.0,1.51
13896.0,1.55
13898.0,1.51
13900.0,1.54
13902.0,1.67
13904.0,1.67
13906.0,1.7
13908.0,1.55
13911.0,1.49
13913.0,1.6
13915.0,1.4
13917.0,1.25
13919.0,1.49
13921.0,1.32
13923.0,1.84
13924.0,1.93
13926.0,1.79
13928.0,1.7
13930.0,1.55
13932.0,1.55
13934.0,1.5
13936.0,1.52
13938.0,1.52
13940.0,1.47
13942.0,1.52
13944.0,1.67
13946.0,1.75
13948.0,1.5
13950.0,1.35
13953.0,1.48
13955.0,1.45
13957.0,1.35
13959.0,1.31
13961.0,1.44
13963.0,1.57
13965.0,1.56
13967.0,1.57
13968.0,1.49
13970.0,1.4
13972.0,1.37
13974.0,1.33
13976.0,1.2
13978.0,1.14
13980.0,1.56
13982.0,1.52
13984.0,1.51
13986.0,1.67
13988.0,1.49
13990.0,1.3
13992.0,1.33
13995.0,1.27
13997.0,1.32
13999.0,1.29
14001.0,1.34
14003.0,1.4
14005.0,1.38
14007.0,1.6
14009.0,1.55
14010.0,1.38
14012.0,1.3
14014.0,1.25
14016.0,1.31
14018.0,1.21
14020.0,1.2
14022.0,1.47
14024.0,1.38
14026.0,1.65
14028.0,1.64
14030.0,1.37
14032.0,1.25
14034.0,1.3
14036.0,1.38
14039.0,1.35
14041.0,1.34
14043.0,1.4
14045.0,1.5
14047.0,1.49
14049.0,1.45
14051.0,1.36
14052.0,1.3
14054.0,1.47
14056.0,1.47
14058.0,1.52
14060.0,1.55
14062.0,1.65
14064.0,1.58
14066.0,1.54
14068.0,1.45
14070.0,1.35
14072.0,1.37
14074.0,1.41
14076.0,1.36
14078.0,1.34
14081.0,1.41
14083.0,1.4
14085.0,1.45
14087.0,1.55
14089.0,1.53
14091.0,1.62
14093.0,1.53
14095.0,1.45
14096.0,1.38
14098.0,1.31
14100.0,1.32
14102.0,1.49
14104.0,1.67
14106.0,1.57
14108.0,1.4
14110.0,1.26
14112.0,1.27
14114.0,1.2
14116.0,1.22
14118.0,1.29
14120.0,1.38
14123.0,1.53
14125.0,1.29
14127.0,1.42
14129.0,1.66
14131.0,1.63
14133.0,1.47
14135.0,1.36
14137.0,1.34
14138.0,1.45
14140.0,1.5
14142.0,1.54
14144.0,1.5
14146.0,1.53
14148.0,1.35
14150.0,1.15
14152.0,1.14
14154.0,1.47
14156.0,1.56
14158.0,1.27
14160.0,1.4
14162.0,1.73
14164.0,1.81
14167.0,1.68
14169.0,1.49
14171.0,1.39
14173.0,1.36
14175.0,1.33
14177.0,1.22
14179.0,1.41
14180.0,1.51
14182.0,1.75
14184.0,1.69
14186.0,1.61
14188.0,1.53
14190.0,1.37
14192.0,1.33
14194.0,1.3
14196.0,1.43
14198.0,1.53
14200.0,1.48
14202.0,1.55
14204.0,1.59
14206.0,1.58
14209.0,1.51
14211.0,1.41
14213.0,1.43
14215.0,1.27
14217.0,1.26
14219.0,1.22
14221.0,1.56
14223.0,1.66
14224.0,1.55
14226.0,1.65
14228.0,1.71
14230.0,1.5
14232.0,1.42
14234.0,1.33
14236.0,1.38
14238.0,1.28
14240.0,1.41
14242.0,1.79
14244.0,1.84
14246.0,1.75
14248.0,1.68
14251.0,1.59
14253.0,1.55
14255.0,1.43
14257.0,1.39
14259.0,1.27
14261.0,1.27
14263.0,1.48
14265.0,1.51
14266.0,1.78
14268.0,1.51
14270.0,1.49
14272.0,1.51
14274.0,1.45
14276.0,1.44
14278.0,1.4
14280.0,1.3
14282.0,1.52
14284.0,1.5
14286.0,1.52
14288.0,1.16
14290.0,1.3
14292.0,1.64
14295.0,1.59
14297.0,1.42
14299.0,1.3
14301.0,1.25
14303.0,1.62
14305.0,1.63
14307.0,1.2
14309.0,1.35
14310.0,1.75
14312.0,1.72
14314.0,1.28
14316.0,0.86
14318.0,1.25
14320.0,1.64
14322.0,1.52
14324.0,1.76
14326.0,1.97
14328.0,1.89
14330.0,1.35
14332.0,1.08
14334.0,1.07
14337.0,1.66
14339.0,1.56
14341.0,1.51
14343.0,1.86
14345.0,2.14
14347.0,1.94
14349.0,1.67
14351.0,1.65
14352.0,1.76
14354.0,1.47
14356.0,1.41
14358.0,1.31
14360.0,1.78
14362.0,2.1
14364.0,1.76
14366.0,1.12
14368.0,1.21
14370.0,1.93
14372.0,1.9
14374.0,1.76
14376.0,1.52
14379.0,1.23
14381.0,1.84
14383.0,1.96
14385.0,1.79
14387.0,1.37
14389.0,0.97
14391.0,1.43
14393.0,1.43
14394.0,1.29
14396.0,1.38
14398.0,1.65
14400.0,1.52
14402.0,1.56
14404.0,1.13
14406.0,0.9
14408.0,0.98
14410.0,1.11
14412.0,1.47
14414.0,2.03
14416.0,1.82
14418.0,1.54
14420.0,1.44
14423.0,1.48
14425.0,1.53
14427.0,1.04
14429.0,0.9
14431.0,1.67
14433.0,1.67
14435.0,1.36
14437.0,1.21
14438.0,1.02
14440.0,1.39
14442.0,1.48
14444.0,1.43
14446.0,0.95
14448.0,1.47
14450.0,1.39
14452.0,1.14
14454.0,1.2
14456.0,1.11
14458.0,1.59
14460.0,1.55
14462.0,1.57
14465.0,1.57
14467.0,1.39
14469.0,1.05
14471.0,1.35
14473.0,1.29
14475.0,1.17
14477.0,0.95
14479.0,0.91
14480.0,1.44
14482.0,1.53
14484.0,1.22
14486.0,1.36
14488.0,1.0
14490.0,1.47
14492.0,2.1
14494.0,1.61
14496.0,1.09
14498.0,0.76
14500.0,1.55
14502.0,1.62
14504.0,1.7
14507.0,1.87
14509.0,1.56
14511.0,1.29
14513.0,1.09
14515.0,1.05
14517.0,1.49
14519.0,1.36
14521.0,1.51
14522.0,1.95
14524.0,1.97
14526.0,1.73
14528.0,1.35
14530.0,1.15
14532.0,1.3
14534.0,1.27
14536.0,1.75
14538.0,1.79
14540.0,1.66
14542.0,1.42
14544.0,1.32
14546.0,1.49
14548.0,1.87
14551.0,1.8
14553.0,1.28
14555.0,1.17
14557.0,1.71
14559.0,1.56
14561.0,1.37
14563.0,1.08
14565.0,1.62
14566.0,1.54
14568.0,1.44
14570.0,1.71
14572.0,1.5
14574.0,1.47
14576.0,1.83
14578.0,1.7
14580.0,1.64
14582.0,1.71
14584.0,1.71
14586.0,1.7
14588.0,1.57
14590.0,1.38
14593.0,1.25
14595.0,1.24
14597.0,1.12
14599.0,1.13
14601.0,0.82
14603.0,1.47
14605.0,1.77
14607.0,1.88
14608.0,1.58
14610.0,1.28
14612.0,1.31
14614.0,1.1
14616.0,1.09
14618.0,1.35
14620.0,1.23
14622.0,1.37
14624.0,1.34
14626.0,1.52
14628.0,1.44
14630.0,1.28
14632.0,1.29
14635.0,1.22
14637.0,1.25
14639.0,1.58
14641.0,1.36
14643.0,1.45
14645.0,1.85
14647.0,1.72
14649.0,1.61
14650.0,1.58
14652.0,1.4
14654.0,1.45
14656.0,1.46
14658.0,1.38
14660.0,1.56
14662.0,1.51
14664.0,1.69
14666.0,1.74
14668.0,1.45
14670.0,1.19
14672.0,1.2
14674.0,1.3
14676.0,1.29
14679.0,1.76
14681.0,1.79
14683.0,1.67
14685.0,1.6
14687.0,1.45
14689.0,1.46
14691.0,1.41
14693.0,1.38
14694.0,1.39
14696.0,1.44
14698.0,1.39
14700.0,1.11
14702.0,1.46
14704.0,2.01
14706.0,1.86
14708.0,1.55
14710.0,1.33
14712.0,1.41
14714.0,1.41
14716.0,1.42
14718.0,1.32
14721.0,1.35
14723.0,1.58
14725.0,1.79
14727.0,1.64
14729.0,1.61
14731.0,1.11
14733.0,0.9
14735.0,1.63
14736.0,1.68
14738.0,1.7
14740.0,1.62
14742.0,1.65
14744.0,1.7
14746.0,1.62
14748.0,1.35
14750.0,1.39
14752.0,1.8
14754.0,1.66
14756.0,1.62
14758.0,1.5
14760.0,1.81
14763.0,1.95
14765.0,1.76
14767.0,1.75
14769.0,1.47
14771.0,1.46
14773.0,1.57
14775.0,1.32
14777.0,1.37
14778.0,1.34
14780.0,1.29
14782.0,1.56
14784.0,1.62
14786.0,1.66
14788.0,1.44
14790.0,1.29
14792.0,1.27
14794.0,1.23
14796.0,1.43
14798.0,1.62
14800.0,1.47
14802.0,1.58
14804.0,1.49
14807.0,1.35
14809.0,1.48
14811.0,1.79
14813.0,1.66
14815.0,1.42
14817.0,1.27
14819.0,1.35
14821.0,1.2
14822.0,0.92
14824.0,1.7
14826.0,1.8
14828.0,1.6
14830.0,1.44
14832.0,1.4
14834.0,1.33
14836.0,1.24
14838.0,1.26
14840.0,1.55
14842.0,1.79
14844.0,1.77
14846.0,1.67
14849.0,1.55
14851.0,1.44
14853.0,1.43
14855.0,1.31
14857.0,1.34
14859.0,1.38
14861.0,1.24
14863.0,1.57
14864.0,1.8
14866.0,1.65
14868.0,1.41
14870.0,1.22
14872.0,1.4
14874.0,1.48
14876.0,1.53
14878.0,1.47
14880.0,1.38
14882.0,1.45
14884.0,1.65
14886.0,1.58
14888.0,1.49
14891.0,1.25
14893.0,1.17
14895.0,1.36
14897.0,1.62
14899.0,1.53
14901.0,1.46
14903.0,1.57
14905.0,1.55
14906.0,1.49
14908.0,1.47
14910.0,1.31
14912.0,1.33
14914.0,1.39
14916.0,1.38
14918.0,1.21
14920.0,1.42
14922.0,1.79
14924.0,1.69
14926.0,1.62
14928.0,1.61
14930.0,1.48
14932.0,1.48
14935.0,1.41
14937.0,1.43
14939.0,1.4
14941.0,1.34
14943.0,1.42
14945.0,1.63
14947.0,1.45
14949.0,1.32
14950.0,1.65
14952.0,1.52
14954.0,1.42
14956.0,1.41
14958.0,1.39
14960.0,1.41
14962.0,1.36
14964.0,1.36
14966.0,1.6
14968.0,1.5
14970.0,1.35
14972.0,1.3
14974.0,1.27
14977.0,1.3
14979.0,1.48
14981.0,1.48
14983.0,1.47
14985.0,1.72
14987.0,1.72
14989.0,1.61
14991.0,1.51
14992.0,1.4
14994.0,1.41
14996.0,1.43
14998.0,1.37
15000.0,1.68
15002.0,1.82
15004.0,1.68
15006.0,1.63
15008.0,1.48
15010.0,1.48
15012.0,1.47
15014.0,1.46
15016.0,1.49
15019.0,1.53
15021.0,1.74
15023.0,1.71
15025.0,1.25
15027.0,1.34
15029.0,2.01
15031.0,1.88
15033.0,1.66
15034.0,1.61
15036.0,1.57
15038.0,1.46
15040.0,1.53
15042.0,1.69
15044.0,1.6
15046.0,1.62
15048.0,1.51
15050.0,1.38
15052.0,1.29
15054.0,1.13
15056.0,1.27
15058.0,1.5
15060.0,1.52
15063.0,1.92
15065.0,1.8
15067.0,1.39
15069.0,1.3
15071.0,1.4
15073.0,1.56
15075.0,1.47
15077.0,1.49
15078.0,1.38
15080.0,1.23
15082.0,1.32
15084.0,1.56
15086.0,1.56
15088.0,1.22
15090.0,1.6
15092.0,1.51
15094.0,1.42
15096.0,1.14
15098.0,0.92
15100.0,1.45
15102.0,1.86
15105.0,1.76
15107.0,1.66
15109.0,1.41
15111.0,1.27
15113.0,1.41
15115.0,1.42
15117.0,1.35
15119.0,1.26
15120.0,1.42
15122.0,1.65
15124.0,1.32
15126.0,1.13
15128.0,1.48
15130.0,1.64
15132.0,1.56
15134.0,1.51
15136.0,1.45
15138.0,1.41
15140.0,1.4
15142.0,1.45
15144.0,1.48
15147.0,1.35
15149.0,1.25
15151.0,1.14
15153.0,1.35
15155.0,1.63
15157.0,1.69
15159.0,1.5
15161.0,1.42
15162.0,1.56
15164.0,1.55
15166.0,1.43
15168.0,1.24
15170.0,1.25
15172.0,1.29
15174.0,1.13
15176.0,1.22
15178.0,1.22
15180.0,1.55
15182.0,1.88
15184.0,1.66
15186.0,1.16
15188.0,0.71
15191.0,1.64
15193.0,1.9
15195.0,1.55
15197.0,1.38
15199.0,1.32
15201.0,1.42
15203.0,1.54
15205.0,1.57
15206.0,1.49
15208.0,1.31
15210.0,1.04
15212.0,0.97
15214.0,1.12
15216.0,1.04
15218.0,1.42
15220.0,2.01
15222.0,2.17
15224.0,1.95
15226.0,1.67
15228.0,1.41
15230.0,1.44
15233.0,1.36
15235.0,1.54
15237.0,1.58
15239.0,1.61
15241.0,1.27
15243.0,1.29
15245.0,1.39
15247.0,1.7
15248.0,2.07
15250.0,1.85
15252.0,1.59
15254.0,1.58
15256.0,1.62
15258.0,1.62
15260.0,1.48
15262.0,1.52
15264.0,1.54
15266.0,2.14
15268.0,1.6
15270.0,1.8
15272.0,1.85
15275.0,1.64
15277.0,1.5
15279.0,1.34
15281.0,1.22
15283.0,1.23
15285.0,1.39
15287.0,1.07
15289.0,1.76
15290.0,1.21
15292.0,1.41
15294.0,1.48
15296.0,2.04
15298.0,1.58
15300.0,1.38
15302.0,1.3
15304.0,1.5
15306.0,1.44
15308.0,1.14
15310.0,1.02
15312.0,0.99
15314.0,1.37
15316.0,1.65
15319.0,1.57
15321.0,1.4
15323.0,1.39
15325.0,1.35
15327.0,1.5
15329.0,1.43
15331.0,1.01
15333.0,1.56
15334.0,1.37
15336.0,1.26
15338.0,1.28
15340.0,1.15
15342.0,1.19
15344.0,1.41
15346.0,1.2
15348.0,0.98
15350.0,0.8
15352.0,0.67
15354.0,1.25
15356.0,1.55
15358.0,0.62
15361.0,0.7
15363.0,1.96
15365.0,1.95
15367.0,1.59
15369.0,1.55
15371.0,1.35
15373.0,1.22
15375.0,1.02
15376.0,0.98
15378.0,1.22
15380.0,1.54
15382.0,2.02
15384.0,1.65
15386.0,1.82
15388.0,1.66
15390.0,1.43
15392.0,1.33
15394.0,1.23
15396.0,1.38
15398.0,0.84
15400.0,1.14
15403.0,1.81
15405.0,1.7
15407.0,2.01
15409.0,1.74
15411.0,1.45
15413.0,1.02
15415.0,1.25
15417.0,1.17
15418.0,1.55
15420.0,1.28
15422.0,1.46
15424.0,1.58
15426.0,1.31
15428.0,0.91
15430.0,1.29
15432.0,1.44
15434.0,1.4
15436.0,0.71
15438.0,0.81
15440.0,1.35
15442.0,1.46
15444.0,1.26
15447.0,1.32
15449.0,1.69
15451.0,1.54
15453.0,1.44
15455.0,1.2
15457.0,1.18
15459.0,1.37
15461.0,1.57
15462.0,1.94
15464.0,1.55
15466.0,1.56
15468.0,1.88
15470.0,1.62
15472.0,1.42
15474.0,1.36
15476.0,1.25
15478.0,1.38
15480.0,1.24
15482.0,1.66
15484.0,1.75
15486.0,1.53
15489.0,1.13
15491.0,1.1
15493.0,1.34
15495.0,1.66
15497.0,1.48
15499.0,1.54
15501.0,1.23
15503.0,1.11
15504.0,1.82
15506.0,2.32
15508.0,1.86
15510.0,1.57
15512.0,1.48
15514.0,1.35
15516.0,1.44
15518.0,1.56
15520.0,1.54
15522.0,1.6
15524.0,1.46
15526.0,1.58
15528.0,1.75
15531.0,1.55
15533.0,1.52
15535.0,1.35
15537.0,1.2
15539.0,1.57
15541.0,2.05
15543.0,1.9
15545.0,1.79
15546.0,1.88
15548.0,1.69
15550.0,1.55
15552.0,1.41
15554.0,1.57
15556.0,1.48
15558.0,1.55
15560.0,1.7
15562.0,1.71
15564.0,1.58
15566.0,1.62
15568.0,1.53
15570.0,1.53
15572.0,1.6
15575.0,1.51
15577.0,1.5
15579.0,1.6
15581.0,1.58
15583.0,1.58
15585.0,1.77
15587.0,1.93
15589.0,1.54
15590.0,1.3
15592.0,1.18
15594.0,1.38
15596.0,1.9
15598.0,1.85
15600.0,1.87
15602.0,1.84
15604.0,1.79
15606.0,1.58
15608.0,1.6
15610.0,1.54
15612.0,1.35
15614.0,1.2
15617.0,0.89
15619.0,1.41
15621.0,1.95
15623.0,1.78
15625.0,1.5
15627.0,1.62
15629.0,1.7
15631.0,1.38
15632.0,1.26
15634.0,1.09
15636.0,0.96
15638.0,1.7
15640.0,1.8
15642.0,1.75
15644.0,1.56
15646.0,1.44
15648.0,1.41
15650.0,1.35
15652.0,1.28
15654.0,1.38
15656.0,1.43
15659.0,1.31
15661.0,1.18
15663.0,1.46
15665.0,1.65
15667.0,1.58
15669.0,1.74
15671.0,1.7
15673.0,1.6
15674.0,1.59
15676.0,1.6
15678.0,1.53
15680.0,1.62
15682.0,1.45
15684.0,1.4
15686.0,1.74
15688.0,1.53
15690.0,1.43
15692.0,1.29
15694.0,1.32
15696.0,1.54
15698.0,1.54
15700.0,1.5
15703.0,1.55
15705.0,1.57
15707.0,1.58
15709.0,1.33
15711.0,1.13
15713.0,1.17
15715.0,1.27
15717.0,1.05
15718.0,0.89
15720.0,1.38
15722.0,2.16
15724.0,1.91
15726.0,1.73
15728.0,1.51
15730.0,1.45
15732.0,1.42
15734.0,1.42
15736.0,1.42
15738.0,1.52
15740.0,1.59
15742.0,1.67
15745.0,1.67
15747.0,1.66
15749.0,1.49
15751.0,1.32
15753.0,1.34
15755.0,1.36
15757.0,1.05
15759.0,1.25
15760.0,1.4
15762.0,1.45
15764.0,1.61
15766.0,1.95
15768.0,1.6
15770.0,1.35
15772.0,1.45
15774.0,1.63
15776.0,1.69
15778.0,1.72
15780.0,1.76
15782.0,1.83
15784.0,1.7
15787.0,1.7
15789.0,1.7
15791.0,1.64
15793.0,1.59
15795.0,1.48
15797.0,1.3
15799.0,1.35
15801.0,1.73
15803.0,1.93
15804.0,1.75
15806.0,1.84
15808.0,1.55
15810.0,1.39
15812.0,1.46
15814.0,1.34
15816.0,1.45
15818.0,1.57
15820.0,1.66
15822.0,1.4
15824.0,1.33
15826.0,1.55
15828.0,1.28
15831.0,1.37
15833.0,1.66
15835.0,1.56
15837.0,1.52
15839.0,1.46
15841.0,1.48
15843.0,1.56
15845.0,1.55
15846.0,1.54
15848.0,1.42
15850.0,1.34
15852.0,1.35
15854.0,1.42
15856.0,1.42
15858.0,1.37
15860.0,1.4
15862.0,1.46
15864.0,1.45
15866.0,1.4
15868.0,1.26
15870.0,1.25
15873.0,1.29
15875.0,1.46
15877.0,1.55
15879.0,1.44
15881.0,1.46
15883.0,1.68
15885.0,1.66
15887.0,1.57
15888.0,1.34
15890.0,1.22
15892.0,1.07
15894.0,0.99
15896.0,1.37
15898.0,1.54
15900.0,1.66
15902.0,1.64
15904.0,1.57
15906.0,1.56
15908.0,1.35
15910.0,1.29
15912.0,1.49
15915.0,1.46
15917.0,1.37
15919.0,1.37
15921.0,1.48
15923.0,1.68
15925.0,1.58
15927.0,1.5
15929.0,1.25
15931.0,1.02
15932.0,1.21
15934.0,1.27
15936.0,1.86
15938.0,1.8
15940.0,1.74
15942.0,1.78
15944.0,1.61
15946.0,1.53
15948.0,1.42
15950.0,1.37
15952.0,1.34
15954.0,1.32
15956.0,1.35
15959.0,1.28
15961.0,1.24
15963.0,1.37
15965.0,1.8
15967.0,1.68
15969.0,1.43
15971.0,1.38
15973.0,1.43
15974.0,1.39
15976.0,1.4
15978.0,1.42
15980.0,1.46
15982.0,1.55
15984.0,1.57
15986.0,1.53
15988.0,1.33
15990.0,1.3
15992.0,1.29
15994.0,1.33
15996.0,1.38
15998.0,1.34
16001.0,1.4
16003.0,1.31
16005.0,1.53
16007.0,1.62
16009.0,1.34
16011.0,1.34
16013.0,1.25
16015.0,1.27
16016.0,1.33
16018.0,1.23
16020.0,1.33
16022.0,1.41
16024.0,1.5
16026.0,1.41
16028.0,1.37
16030.0,1.37
16032.0,1.1
16034.0,1.17
16036.0,1.31
16038.0,1.36
16040.0,1.4
16043.0,1.49
16045.0,1.52
16047.0,1.61
16049.0,1.44
16051.0,1.35
16053.0,1.36
16055.0,1.4
16057.0,1.5
16059.0,1.62
16060.0,1.66
16062.0,1.62
16064.0,1.52
16066.0,1.49
16068.0,1.35
16070.0,1.25
16072.0,1.28
16074.0,1.47
16076.0,1.48
16078.0,1.38
16080.0,1.38
16082.0,1.47
16084.0,1.51
16087.0,1.55
16089.0,1.29
16091.0,1.26
16093.0,1.42
16095.0,1.27
16097.0,1.27
16099.0,1.36
16101.0,1.43
16102.0,1.47
16104.0,1.34
16106.0,1.2
16108.0,1.48
16110.0,1.58
16112.0,1.4
16114.0,1.36
16116.0,1.3
16118.0,1.27
16120.0,1.4
16122.0,1.5
16124.0,1.44
16126.0,1.36
16129.0,1.32
16131.0,1.51
16133.0,1.11
16135.0,1.28
16137.0,1.67
16139.0,1.6
16141.0,1.56
16143.0,1.6
16144.0,1.66
16146.0,1.63
16148.0,1.46
16150.0,1.4
16152.0,1.26
16154.0,1.21
16156.0,1.14
16158.0,1.27
16160.0,1.86
16162.0,1.81
16164.0,1.66
16166.0,1.55
16168.0,1.48
16171.0,1.5
16173.0,1.38
16175.0,1.26
16177.0,1.33
16179.0,1.41
16181.0,1.41
16183.0,1.71
16185.0,1.68
16187.0,1.6
16188.0,1.42
16190.0,1.27
16192.0,1.55
16194.0,1.73
16196.0,1.6
16198.0,1.54
16200.0,1.58
16202.0,1.66
16204.0,1.64
16206.0,1.54
16208.0,1.33
16210.0,1.37
16212.0,1.42
16215.0,1.35
16217.0,1.29
16219.0,1.51
16221.0,1.64
16223.0,1.74
16225.0,1.68
16227.0,1.49
16229.0,1.51
16230.0,1.46
16232.0,1.41
16234.0,1.05
16236.0,0.79
16238.0,1.63
16240.0,2.11
16242.0,1.94
16244.0,1.78
16246.0,1.69
16248.0,1.45
16250.0,1.4
16252.0,1.37
16254.0,1.37
16257.0,1.4
16259.0,1.28
16261.0,1.36
16263.0,1.73
16265.0,1.67
16267.0,1.51
16269.0,1.5
16271.0,1.31
16272.0,1.32
16274.0,1.6
16276.0,1.65
16278.0,1.45
16280.0,1.55
16282.0,1.67
16284.0,1.71
16286.0,1.64
16288.0,1.39
16290.0,1.43
16292.0,1.49
16294.0,1.37
16296.0,1.4
16299.0,1.33
16301.0,1.44
16303.0,1.58
16305.0,1.61
16307.0,1.88
16309.0,1.75
16311.0,1.51
16313.0,1.44
16315.0,1.45
16316.0,1.34
16318.0,1.08
16320.0,1.22
16322.0,1.83
16324.0,1.87
16326.0,1.78
16328.0,1.3
16330.0,1.22
16332.0,1.29
16334.0,1.13
16336.0,1.19
16338.0,1.46
16340.0,1.82
16343.0,2.25
16345.0,2.05
16347.0,1.61
16349.0,1.4
16351.0,1.24
16353.0,1.35
16355.0,1.57
16357.0,1.44
16358.0,1.38
16360.0,1.47
16362.0,1.51
16364.0,1.42
16366.0,1.33
16368.0,0.97
16370.0,1.64
16372.0,1.9
16374.0,1.61
16376.0,1.42
16378.0,1.03
16380.0,0.98
16382.0,1.74
16385.0,2.0
16387.0,1.29
16389.0,1.19
16391.0,1.9
16393.0,1.85
16395.0,1.72
16397.0,1.49
16399.0,1.06
16400.0,0.5
16402.0,0.75
16404.0,2.18
16406.0,2.46
16408.0,1.79
16410.0,1.67
16412.0,1.74
16414.0,1.43
16416.0,1.3
16418.0,1.42
16420.0,1.76
16422.0,1.71
16424.0,1.29
16427.0,1.33
16429.0,1.52
16431.0,1.22
16433.0,1.47
16435.0,2.25
16437.0,1.53
16439.0,1.1
16441.0,1.02
16443.0,2.05
16444.0,2.24
16446.0,1.5
16448.0,0.86
16450.0,1.07
16452.0,0.5
16454.0,1.94
16456.0,2.43
16458.0,1.76
16460.0,1.91
16462.0,1.76
16464.0,1.46
16466.0,1.54
16468.0,1.52
16471.0,1.23
16473.0,1.36
16475.0,1.47
16477.0,1.49
16479.0,1.39
16481.0,1.38
16483.0,1.22
16485.0,1.21
16486.0,1.57
16488.0,1.56
16490.0,1.4
16492.0,1.38
16494.0,1.11
16496.0,0.73
16498.0,1.64
16500.0,1.92
16502.0,1.74
16504.0,1.65
16506.0,1.58
16508.0,1.37
16510.0,1.26
16513.0,1.18
16515.0,0.77
16517.0,1.45
16519.0,1.5
16521.0,1.48
16523.0,1.24
16525.0,1.57
16527.0,1.43
16528.0,1.6
16530.0,1.48
16532.0,1.26
16534.0,1.25
16536.0,1.15
16538.0,1.0
16540.0,0.91
16542.0,1.49
16544.0,1.96
16546.0,1.2
16548.0,0.62
16550.0,1.39
16552.0,1.37
16555.0,1.43
16557.0,1.05
16559.0,0.74
16561.0,1.36
16563.0,1.49
16565.0,1.06
16567.0,1.66
16569.0,1.33
16571.0,1.32
16572.0,1.25
16574.0,0.95
16576.0,1.0
16578.0,1.48
16580.0,1.58
16582.0,1.73
16584.0,1.73
16586.0,1.39
16588.0,0.99
16590.0,1.6
16592.0,1.57
16594.0,1.43
16596.0,1.35
16599.0,1.43
16601.0,1.44
16603.0,1.45
16605.0,1.24
16607.0,1.3
16609.0,1.74
16611.0,1.62
16613.0,1.46
16614.0,1.67
16616.0,1.52
16618.0,1.33
16620.0,1.49
16622.0,1.44
16624.0,1.47
16626.0,1.53
16628.0,1.23
16630.0,1.45
16632.0,1.52
16634.0,1.2
16636.0,1.36
16638.0,1.88
16641.0,1.62
16643.0,1.86
16645.0,1.86
16647.0,1.79
16649.0,1.65
16651.0,1.55
16653.0,1.54
16655.0,1.55
16657.0,1.69
16658.0,1.7
16660.0,1.55
16662.0,1.55
16664.0,1.39
16666.0,1.78
16668.0,2.02
16670.0,1.71
16672.0,1.66
16674.0,1.58
16676.0,1.6
16678.0,1.85
16680.0,1.81
16683.0,1.78
16685.0,1.64
16687.0,1.54
16689.0,1.46
16691.0,1.46
16693.0,1.42
16695.0,1.37
16697.0,1.29
16699.0,1.38
16700.0,1.29
16702.0,1.32
16704.0,1.95
16706.0,1.87
16708.0,1.56
16710.0,1.43
16712.0,1.35
16714.0,1.35
16716.0,1.35
16718.0,1.35
16720.0,1.48
16722.0,1.54
16724.0,1.55
16727.0,1.33
16729.0,1.01
16731.0,1.32
16733.0,1.55
16735.0,1.48
16737.0,1.48
16739.0,1.42
16741.0,1.45
16742.0,1.61
16744.0,1.59
16746.0,1.57
16748.0,1.3
16750.0,1.12
16752.0,1.34
16754.0,1.37
16756.0,1.33
16758.0,1.48
16760.0,1.53
16762.0,1.55
16764.0,1.58
16766.0,1.54
16769.0,1.38
16771.0,1.51
16773.0,1.19
16775.0,1.37
16777.0,1.64
16779.0,1.95
16781.0,1.84
16783.0,1.94
16785.0,2.21
16786.0,1.89
16788.0,1.65
16790.0,1.73
16792.0,1.74
16794.0,1.55
16796.0,1.55
16798.0,1.51
16800.0,1.73
16802.0,1.5
16804.0,1.4
16806.0,1.56
16808.0,1.56
16811.0,1.7
16813.0,1.62
16815.0,1.42
16817.0,1.17
16819.0,1.34
16821.0,1.55
16823.0,1.54
16825.0,1.45
16827.0,1.39
16828.0,1.22
16830.0,1.16
16832.0,1.21
16834.0,1.22
16836.0,1.18
16838.0,1.22
16840.0,1.37
16842.0,1.49
16844.0,1.45
16846.0,1.36
16848.0,1.29
16850.0,1.15
16852.0,1.28
16855.0,1.28
16857.0,1.29
16859.0,1.45
16861.0,1.56
16863.0,1.37
16865.0,1.46
16867.0,1.69
16869.0,1.44
16870.0,1.36
16872.0,1.35
16874.0,1.29
16876.0,1.3
16878.0,1.17
16880.0,1.22
16882.0,1.54
16884.0,1.95
16886.0,1.62
16888.0,1.28
16890.0,1.48
16892.0,1.48
16894.0,1.43
16897.0,1.43
16899.0,1.44
16901.0,1.53
16903.0,1.61
16905.0,1.59
16907.0,1.37
16909.0,0.97
16911.0,1.31
16913.0,1.65
16914.0,1.39
16916.0,1.52
16918.0,1.6
16920.0,1.62
16922.0,1.46
16924.0,1.56
16926.0,1.53
16928.0,1.47
16930.0,1.45
16932.0,1.42
16934.0,1.4
16936.0,1.45
16939.0,1.45
16941.0,1.49
16943.0,1.61
16945.0,1.55
16947.0,1.68
16949.0,1.39
16951.0,1.3
16953.0,1.29
16955.0,1.41
16956.0,1.31
16958.0,1.3
16960.0,1.48
16962.0,1.58
16964.0,1.58
16966.0,1.37
16968.0,1.12
16970.0,1.42
16972.0,1.7
16974.0,1.54
16976.0,1.45
16978.0,1.42
16980.0,1.54
16983.0,1.61
16985.0,1.61
16987.0,1.56
16989.0,1.38
16991.0,1.38
16993.0,1.38
16995.0,1.34
16997.0,1.29
16998.0,1.35
17000.0,1.47
17002.0,1.5
17004.0,1.64
17006.0,1.58
17008.0,1.38
17010.0,1.26
17012.0,1.23
17014.0,1.21
17016.0,1.43
17018.0,1.49
17020.0,1.61
17022.0,1.82
17025.0,1.73
17027.0,1.55
17029.0,1.26
17031.0,1.21
17033.0,1.39
17035.0,1.33
17037.0,1.29
17039.0,1.12
17041.0,1.52
17042.0,1.65
17044.0,1.64
17046.0,1.62
17048.0,1.25
17050.0,1.16
17052.0,1.19
17054.0,1.36
17056.0,1.73
17058.0,1.38
17060.0,1.77
17062.0,1.92
17064.0,1.78
17067.0,1.66
17069.0,1.51
17071.0,1.48
17073.0,1.4
17075.0,1.4
17077.0,1.39
17079.0,1.37
17081.0,1.48
17083.0,1.57
17084.0,1.55
17086.0,1.41
17088.0,1.39
17090.0,1.48
17092.0,1.57
17094.0,1.42
17096.0,1.47
17098.0,1.5
17100.0,1.54
17102.0,1.7
17104.0,1.7
17106.0,1.49
17108.0,1.16
17111.0,1.23
17113.0,1.51
17115.0,1.5
17117.0,1.42
17119.0,1.36
17121.0,1.54
17123.0,1.76
17125.0,1.73
17126.0,1.52
17128.0,1.2
17130.0,1.35
17132.0,1.5
17134.0,1.44
17136.0,1.42
17138.0,1.4
17140.0,1.36
17142.0,1.63
17144.0,1.72
17146.0,1.59
17148.0,1.43
17150.0,1.43
17153.0,1.36
17155.0,1.35
17157.0,1.41
17159.0,1.38
17161.0,1.47
17163.0,1.55
17165.0,1.54
17167.0,1.53
17169.0,1.4
17170.0,1.33
17172.0,1.24
17174.0,1.25
17176.0,1.42
17178.0,1.58
17180.0,1.63
17182.0,1.66
17184.0,1.57
17186.0,1.61
17188.0,1.42
17190.0,1.28
17192.0,1.52
17195.0,1.44
17197.0,1.45
17199.0,1.41
17201.0,1.57
17203.0,1.43
17205.0,1.68
17207.0,1.67
17209.0,1.37
17211.0,1.45
17212.0,1.62
17214.0,1.67
17216.0,1.51
17218.0,1.55
17220.0,1.69
17222.0,1.72
17224.0,1.6
17226.0,1.44
17228.0,1.07
17230.0,1.31
17232.0,1.75
17234.0,1.57
17236.0,1.45
17239.0,1.47
17241.0,1.57
17243.0,1.61
17245.0,1.64
17247.0,1.56
17249.0,1.45
17251.0,1.47
17253.0,1.43
17254.0,1.39
17256.0,1.39
17258.0,1.41
17260.0,1.62
17262.0,1.6
17264.0,1.49
17266.0,1.27
17268.0,1.32
17270.0,1.56
17272.0,1.47
17274.0,1.45
17276.0,1.52
17278.0,1.55
17281.0,1.51
17283.0,1.57
17285.0,1.65
17287.0,1.63
17289.0,1.39
17291.0,1.44
17293.0,1.3
17295.0,1.08
17297.0,1.34
17298.0,1.59
17300.0,1.76
17302.0,1.61
17304.0,1.61
17306.0,1.53
17308.0,1.6
17310.0,1.73
17312.0,1.67
17314.0,1.56
17316.0,1.46
17318.0,1.43
17320.0,1.61
17323.0,1.55
17325.0,1.57
17327.0,1.6
17329.0,1.35
17331.0,1.3
17333.0,1.14
17335.0,1.43
17337.0,1.28
17339.0,1.28
17340.0,1.38
17342.0,1.4
17344.0,1.95
17346.0,1.8
17348.0,1.42
17350.0,1.45
17352.0,1.34
17354.0,1.29
17356.0,1.07
17358.0,1.15
17360.0,1.37
17362.0,1.69
17364.0,1.95
17367.0,1.92
17369.0,1.44
17371.0,1.28
17373.0,1.43
17375.0,1.37
17377.0,1.23
17379.0,1.36
17381.0,1.41
17382.0,1.88
17384.0,1.87
17386.0,1.62
17388.0,1.41
17390.0,1.12
17392.0,1.05
17394.0,1.48
17396.0,1.41
17398.0,1.33
17400.0,1.15
17402.0,1.65
17404.0,1.9
17406.0,1.65
17409.0,1.55
17411.0,1.02
17413.0,0.52
17415.0,1.51
17417.0,2.28
17419.0,1.78
17421.0,1.17
17423.0,1.27
17425.0,1.6
17426.0,1.62
17428.0,1.79
17430.0,1.17
17432.0,1.02
17434.0,1.2
17436.0,1.18
17438.0,1.71
17440.0,1.99
17442.0,2.01
17444.0,1.84
17446.0,1.43
17448.0,1.52
17451.0,1.53
17453.0,1.47
17455.0,1.37
17457.0,1.63
17459.0,1.21
17461.0,1.12
17463.0,1.15
17465.0,1.38
17467.0,1.31
17468.0,1.55
17470.0,1.05
17472.0,1.17
17474.0,1.34
17476.0,1.41
17478.0,1.24
17480.0,1.85
17482.0,1.9
17484.0,1.37
17486.0,1.24
17488.0,1.06
17490.0,1.34
17492.0,1.34
17495.0,1.14
17497.0,1.27
17499.0,1.47
17501.0,1.29
17503.0,1.33
17505.0,1.35
17507.0,1.34
17509.0,1.09
17510.0,1.2
17512.0,1.03
17514.0,0.99
17516.0,0.76
17518.0,1.34
17520.0,1.51
17522.0,1.37
17524.0,1.46
17526.0,1.29
17528.0,1.43
17530.0,1.25
17532.0,1.63
17534.0,1.43
17537.0,1.81
17539.0,1.79
17541.0,1.77
17543.0,1.68
17545.0,1.6
17547.0,1.49
17549.0,0.85
17551.0,0.67
17553.0,1.87
17554.0,1.65
17556.0,1.16
17558.0,1.21
17560.0,1.35
17562.0,1.4
17564.0,2.15
17566.0,2.08
17568.0,1.45
17570.0,1.11
17572.0,1.42
17574.0,1.38
17576.0,1.25
17579.0,1.2
17581.0,1.39
17583.0,1.51
17585.0,1.37
17587.0,1.3
17589.0,1.13
17591.0,1.29
17593.0,1.04
17595.0,0.79
17596.0,0.38
17598.0,1.27
17600.0,2.09
17602.0,1.68
17604.0,1.49
17606.0,1.19
17608.0,1.52
17610.0,1.74
17612.0,1.55
17614.0,1.46
17616.0,1.4
17618.0,1.27
17620.0,1.49
17623.0,1.09
17625.0,1.73
17627.0,1.84
17629.0,1.59
17631.0,1.23
17633.0,1.37
17635.0,1.58
17637.0,1.25
17639.0,1.19
17640.0,2.05
17642.0,1.81
17644.0,1.68
17646.0,1.6
17648.0,1.48
17650.0,1.33
17652.0,1.29
17654.0,1.28
17656.0,1.26
17658.0,1.41
17660.0,1.52
17662.0,1.48
17665.0,1.24
17667.0,1.52
17669.0,1.17
17671.0,1.19
17673.0,1.92
17675.0,1.63
17677.0,1.61
17679.0,1.4
17681.0,1.62
17682.0,2.37
17684.0,2.08
17686.0,1.85
17688.0,1.61
17690.0,1.55
17692.0,1.5
17694.0,1.51
17696.0,1.54
17698.0,1.52
17700.0,1.47
17702.0,1.25
17704.0,1.95
17707.0,2.1
17709.0,1.75
17711.0,1.69
17713.0,1.69
17715.0,1.59
17717.0,1.57
17719.0,1.58
17721.0,1.67
17723.0,1.6
17724.0,1.67
17726.0,1.66
17728.0,1.53
17730.0,1.38
17732.0,1.3
17734.0,1.37
17736.0,1.3
17738.0,1.79
17740.0,1.74
17742.0,1.76
17744.0,1.75
17746.0,1.62
17748.0,1.49
17751.0,1.42
17753.0,1.41
17755.0,1.57
17757.0,1.67
17759.0,1.67
17761.0,1.88
17763.0,1.82
17765.0,1.72
17767.0,1.61
17768.0,1.55
17770.0,1.59
17772.0,1.54
17774.0,1.61
17776.0,1.56
17778.0,1.51
17780.0,1.77
17782.0,1.93
17784.0,1.78
17786.0,1.61
17788.0,1.63
17790.0,1.5
17793.0,1.54
17795.0,1.74
17797.0,1.7
17799.0,1.62
17801.0,1.84
17803.0,1.96
17805.0,1.98
17807.0,1.89
17809.0,1.49
17810.0,1.28
17812.0,1.75
17814.0,1.92
17816.0,1.82
17818.0,1.72
17820.0,1.72
17822.0,1.57
17824.0,1.75
17826.0,1.68
17828.0,1.45
17830.0,1.51
17832.0,1.44
17835.0,1.25
17837.0,1.2
17839.0,1.12
17841.0,1.26
17843.0,1.39
17845.0,1.19
17847.0,1.07
17849.0,1.29
17851.0,1.16
17852.0,1.05
17854.0,1.2
17856.0,1.14
17858.0,1.14
17860.0,1.39
17862.0,1.37
17864.0,1.35
17866.0,1.24
17868.0,1.48
17870.0,1.39
17872.0,1.26
17874.0,1.25
17876.0,1.24
17879.0,1.28
17881.0,1.36
17883.0,1.29
17885.0,1.17
17887.0,1.26
17889.0,1.2
17891.0,1.25
17893.0,1.23
17895.0,1.2
17896.0,1.11
17898.0,1.21
17900.0,1.4
17902.0,1.54
17904.0,1.52
17906.0,1.31
17908.0,1.24
17910.0,1.16
17912.0,1.2
17914.0,1.27
17916.0,1.24
17918.0,1.28
17921.0,1.33
17923.0,1.18
17925.0,1.27
17927.0,1.6
17929.0,1.46
17931.0,1.38
17933.0,1.33
17935.0,1.3
17937.0,1.29
17938.0,1.35
17940.0,1.45
17942.0,1.54
17944.0,1.56
17946.0,1.43
17948.0,1.52
17950.0,1.55
17952.0,1.48
17954.0,1.46
17956.0,1.3
17958.0,1.35
17960.0,1.57
17963.0,1.63
17965.0,1.63
17967.0,1.51
17969.0,1.37
17971.0,1.35
17973.0,1.45
17975.0,1.49
17977.0,1.48
17979.0,1.48
17980.0,1.61
17982.0,1.68
17984.0,1.61
17986.0,1.38
17988.0,1.38
17990.0,1.57
17992.0,1.5
17994.0,1.55
17996.0,1.52
17998.0,1.51
18000.0,1.65
18002.0,1.74
18004.0,1.73
18007.0,1.58
18009.0,1.45
18011.0,1.48
18013.0,1.58
18015.0,1.61
18017.0,1.53
18019.0,1.47
18021.0,1.5
18023.0,1.9
18024.0,1.82
18026.0,1.54
18028.0,1.34
18030.0,1.41
18032.0,1.49
18034.0,1.45
18036.0,1.37
18038.0,1.5
18040.0,1.76
18042.0,1.71
18044.0,1.65
18046.0,1.51
18049.0,1.41
18051.0,1.33
18053.0,1.3
18055.0,1.5
18057.0,1.35
18059.0,1.35
18061.0,1.65
18063.0,1.82
18065.0,1.63
18066.0,1.39
18068.0,1.31
18070.0,1.22
18072.0,1.35
18074.0,1.41
18076.0,1.33
18078.0,1.31
18080.0,1.56
18082.0,1.54
18084.0,1.39
18086.0,1.38
18088.0,1.44
18091.0,1.48
18093.0,1.55
18095.0,1.45
18097.0,1.33
18099.0,1.42
18101.0,1.54
18103.0,1.74
18105.0,1.56
18107.0,1.25
18108.0,1.39
18110.0,1.47
18112.0,1.44
18114.0,1.45
18116.0,1.45
18118.0,1.47
18120.0,1.58
18122.0,1.58
18124.0,1.6
18126.0,1.56
18128.0,1.37
18130.0,1.36
18132.0,1.46
18135.0,1.35
18137.0,1.22
18139.0,1.17
18141.0,1.64
18143.0,1.96
18145.0,1.86
18147.0,1.6
18149.0,1.42
18151.0,1.43
18152.0,1.23
18154.0,1.19
18156.0,1.46
18158.0,1.68
18160.0,1.77
18162.0,1.7
18164.0,1.65
18166.0,1.5
18168.0,1.39
18170.0,1.41
18172.0,1.47
18174.0,1.47
18177.0,1.49
18179.0,1.35
18181.0,1.28
18183.0,1.33
18185.0,1.88
18187.0,1.86
18189.0,1.29
18191.0,1.21
18193.0,1.35
18194.0,1.55
18196.0,1.71
18198.0,1.61
18200.0,1.66
18202.0,1.62
18204.0,1.52
18206.0,1.42
18208.0,1.3
18210.0,1.25
18212.0,1.39
18214.0,1.45
18216.0,1.25
18219.0,1.06
18221.0,1.46
18223.0,2.03
18225.0,1.62
18227.0,1.59
18229.0,1.44
18231.0,1.45
18233.0,1.43
18235.0,1.26
18236.0,1.18
18238.0,1.23
18240.0,1.52
18242.0,1.54
18244.0,1.35
18246.0,1.35
18248.0,0.9
18250.0,1.48
18252.0,1.54
18254.0,1.33
18256.0,0.92
18258.0,0.65
18260.0,1.72
18263.0,2.35
18265.0,1.82
18267.0,1.55
18269.0,1.48
18271.0,1.43
18273.0,1.39
18275.0,1.34
18277.0,1.38
18279.0,1.5
18280.0,1.53
18282.0,1.38
18284.0,1.19
18286.0,1.03
18288.0,1.53
18290.0,1.85
18292.0,1.47
18294.0,1.33
18296.0,1.03
18298.0,0.96
18300.0,1.27
18302.0,2.2
18305.0,2.14
18307.0,1.45
18309.0,1.16
18311.0,1.36
18313.0,1.32
18315.0,1.43
18317.0,1.79
18319.0,1.27
18321.0,1.16
18322.0,1.61
18324.0,1.8
18326.0,1.77
18328.0,1.81
18330.0,1.39
18332.0,1.12
18334.0,1.23
18336.0,1.22
18338.0,1.37
18340.0,1.45
18342.0,1.62
18344.0,2.25
18347.0,1.65
18349.0,1.52
18351.0,1.33
18353.0,1.05
18355.0,1.2
18357.0,1.97
18359.0,2.17
18361.0,1.9
18363.0,1.74
18364.0,1.78
18366.0,1.35
18368.0,1.32
18370.0,0.92
18372.0,1.09
18374.0,1.3
18376.0,0.9
18378.0,1.02
18380.0,1.76
18382.0,1.96
18384.0,1.68
18386.0,1.31
18388.0,1.41
18391.0,1.48
18393.0,1.4
18395.0,0.82
18397.0,0.82
18399.0,1.3
18401.0,1.77
18403.0,1.77
18405.0,1.69
18407.0,1.25
18408.0,1.29
18410.0,1.56
18412.0,0.27
18414.0,1.44
18416.0,1.53
18418.0,1.61
18420.0,1.7
18422.0,1.77
18424.0,1.76
18426.0,1.47
18428.0,1.39
18430.0,1.3
18433.0,1.24
18435.0,1.48
18437.0,1.76
18439.0,1.5
18441.0,1.28
18443.0,0.81
18445.0,1.1
18447.0,1.82
18449.0,1.63
18450.0,1.46
18452.0,2.13
18454.0,1.9
18456.0,1.74
18458.0,1.11
18460.0,1.65
18462.0,1.59
18464.0,1.41
18466.0,1.27
18468.0,1.3
18470.0,1.08
18472.0,0.63
18475.0,0.82
18477.0,1.75
18479.0,1.66
18481.0,1.29
18483.0,1.2
18485.0,1.68
18487.0,1.87
18489.0,1.47
18491.0,0.98
18492.0,1.21
18494.0,1.3
18496.0,1.4
18498.0,1.42
18500.0,1.29
18502.0,1.15
18504.0,1.32
18506.0,1.75
18508.0,1.64
18510.0,1.59
18512.0,1.44
18514.0,1.47
18516.0,1.33
18519.0,1.39
18521.0,1.37
18523.0,1.33
18525.0,1.34
18527.0,1.35
18529.0,1.35
18531.0,1.23
18533.0,1.55
18535.0,1.25
18536.0,1.15
18538.0,1.49
18540.0,1.46
18542.0,1.47
18544.0,1.43
18546.0,1.17
18548.0,1.07
18550.0,1.12
18552.0,1.14
18554.0,1.12
18556.0,1.33
18558.0,1.41
18561.0,1.78
18563.0,1.47
18565.0,1.14
18567.0,2.03
18569.0,1.81
18571.0,1.48
18573.0,1.39
18575.0,1.03
18577.0,1.3
18578.0,1.74
18580.0,1.69
18582.0,1.56
18584.0,1.52
18586.0,1.56
18588.0,1.35
18590.0,1.19
18592.0,1.15
18594.0,1.11
18596.0,1.35
18598.0,1.26
18600.0,1.52
18603.0,1.62
18605.0,1.65
18607.0,1.37
18609.0,1.29
18611.0,1.57
18613.0,1.43
18615.0,1.17
18617.0,1.29
18619.0,1.55
18620.0,1.37
18622.0,1.18
18624.0,1.21
18626.0,1.65
18628.0,1.88
18630.0,1.75
18632.0,1.57
18634.0,1.56
18636.0,1.45
18638.0,1.41
18640.0,1.6
18642.0,1.66
18644.0,1.56
18647.0,1.22
18649.0,1.57
18651.0,1.64
18653.0,1.47
18655.0,1.48
18657.0,1.51
18659.0,1.46
18661.0,1.53
18663.0,1.54
18664.0,1.68
18666.0,1.56
18668.0,1.55
18670.0,1.62
18672.0,1.56
18674.0,1.62
18676.0,1.64
18678.0,1.35
18680.0,1.68
18682.0,1.9
18684.0,1.97
18686.0,1.75
18689.0,1.5
18691.0,1.45
18693.0,1.58
18695.0,1.65
18697.0,1.42
18699.0,1.68
18701.0,2.06
18703.0,2.05
18705.0,2.05
18706.0,1.81
18708.0,1.57
18710.0,1.69
18712.0,1.64
18714.0,1.44
18716.0,1.58
18718.0,1.87
18720.0,2.32
18722.0,2.26
18724.0,1.96
18726.0,1.7
18728.0,1.62
18731.0,1.64
18733.0,1.59
18735.0,1.22
18737.0,1.49
18739.0,2.07
18741.0,1.88
18743.0,1.65
18745.0,1.58
18747.0,1.38
18748.0,1.38
18750.0,1.37
18752.0,1.28
18754.0,1.26
18756.0,1.2
18758.0,1.17
18760.0,1.65
18762.0,1.64
18764.0,1.43
18766.0,1.23
18768.0,1.24
18770.0,1.24
18772.0,1.28
18775.0,1.28
18777.0,1.18
18779.0,1.43
18781.0,1.46
18783.0,1.44
18785.0,1.4
18787.0,1.24
18789.0,1.22
18791.0,1.2
18792.0,1.22
18794.0,1.32
18796.0,1.42
18798.0,1.45
18800.0,1.68
18802.0,1.63
18804.0,1.45
18806.0,1.19
18808.0,1.26
18810.0,1.24
18812.0,1.38
18814.0,1.15
18817.0,1.27
18819.0,1.32
18821.0,1.77
18823.0,1.71
18825.0,1.62
18827.0,1.46
18829.0,1.23
18831.0,1.35
18833.0,1.34
18834.0,1.31
18836.0,1.05
18838.0,1.15
18840.0,1.83
18842.0,1.77
18844.0,1.57
18846.0,1.35
18848.0,1.21
18850.0,1.23
18852.0,1.22
18854.0,1.18
18856.0,1.44
18859.0,1.46
18861.0,1.43
18863.0,1.35
18865.0,1.29
18867.0,0.97
18869.0,1.11
18871.0,1.22
18873.0,1.26
18875.0,1.21
18876.0,1.35
18878.0,1.27
18880.0,1.62
18882.0,1.86
18884.0,1.64
18886.0,1.46
18888.0,1.48
18890.0,1.48
18892.0,1.4
18894.0,1.42
18896.0,1.23
18898.0,1.06
18900.0,1.34
18903.0,2.19
18905.0,2.06
18907.0,1.73
18909.0,1.67
18911.0,1.67
18913.0,1.66
18915.0,1.63
18917.0,1.65
18919.0,1.63
18920.0,1.78
18922.0,1.85
18924.0,1.75
18926.0,1.5
18928.0,1.23
18930.0,1.31
18932.0,1.52
18934.0,1.48
18936.0,1.39
18938.0,1.34
18940.0,1.46
18942.0,1.45
18945.0,1.55
18947.0,1.43
18949.0,1.27
18951.0,1.29
18953.0,1.47
18955.0,1.43
18957.0,1.36
18959.0,1.41
18961.0,1.42
18962.0,1.36
18964.0,1.54
18966.0,1.12
18968.0,1.22
18970.0,1.77
18972.0,1.72
18974.0,1.5
18976.0,1.5
18978.0,1.61
18980.0,1.73
18982.0,1.65
18984.0,1.76
18987.0,1.68
18989.0,1.51
18991.0,1.43
18993.0,1.56
18995.0,1.65
18997.0,1.44
18999.0,1.41
19001.0,1.8
19003.0,1.97
19004.0,1.86
19006.0,1.57
19008.0,1.48
19010.0,1.33
19012.0,1.32
19014.0,1.7
19016.0,1.69
19018.0,1.65
19020.0,1.7
19022.0,1.59
19024.0,1.54
19026.0,1.44
19028.0,1.43
19031.0,1.49
19033.0,1.3
19035.0,1.21
19037.0,1.54
19039.0,1.67
19041.0,1.61
19043.0,1.6
19045.0,1.59
19047.0,1.44
19048.0,1.35
19050.0,1.37
19052.0,1.37
19054.0,1.34
19056.0,1.27
19058.0,1.39
19060.0,1.5
19062.0,1.52
19064.0,1.5
19066.0,1.24
19068.0,1.22
19070.0,1.5
19073.0,1.36
19075.0,1.25
19077.0,1.4
19079.0,1.61
19081.0,1.67
19083.0,1.59
19085.0,1.59
19087.0,1.36
19089.0,1.32
19090.0,1.31
19092.0,1.15
19094.0,1.19
19096.0,1.37
19098.0,1.67
19100.0,1.65
19102.0,1.43
19104.0,1.68
19106.0,1.54
19108.0,1.44
19110.0,1.26
19112.0,1.04
19115.0,1.1
19117.0,1.72
19119.0,1.76
19121.0,1.72
19123.0,1.62
19125.0,1.54
19127.0,1.37
19129.0,1.23
19131.0,1.18
19132.0,1.21
19134.0,1.36
19136.0,1.41
19138.0,1.3
19140.0,1.48
19142.0,1.62
19144.0,1.53
19146.0,1.33
19148.0,1.26
19150.0,1.27
19152.0,1.24
19154.0,1.26
19156.0,1.19
19159.0,1.41
19161.0,1.62
19163.0,1.74
19165.0,1.65
19167.0,1.38
19169.0,1.3
19171.0,1.25
19173.0,1.31
19175.0,1.38
19176.0,1.31
19178.0,1.54
19180.0,1.75
19182.0,1.64
19184.0,1.63
19186.0,1.55
19188.0,1.44
19190.0,1.47
19192.0,1.44
19194.0,1.27
19196.0,1.13
19198.0,1.4
19201.0,1.71
19203.0,1.93
19205.0,1.83
19207.0,1.37
19209.0,1.13
19211.0,1.6
19213.0,1.74
19215.0,1.5
19217.0,1.24
19218.0,1.27
19220.0,1.85
19222.0,1.92
19224.0,1.76
19226.0,1.27
19228.0,1.15
19230.0,1.49
19232.0,1.74
19234.0,1.61
19236.0,1.42
19238.0,1.22
19240.0,1.39
19243.0,1.17
19245.0,1.81
19247.0,1.8
19249.0,1.48
19251.0,1.33
19253.0,1.1
19255.0,1.19
19257.0,1.65
19259.0,1.47
19260.0,1.55
19262.0,1.55
19264.0,1.55
19266.0,1.46
19268.0,1.49
19270.0,1.51
19272.0,1.4
19274.0,1.68
19276.0,1.61
19278.0,1.49
19280.0,1.06
19282.0,0.98
19284.0,1.73
19287.0,2.11
19289.0,1.81
19291.0,1.63
19293.0,1.59
19295.0,1.37
19297.0,1.07
19299.0,1.07
19301.0,1.72
19303.0,1.96
19304.0,0.96
19306.0,0.64
19308.0,1.34
19310.0,2.63
19312.0,2.18
19314.0,1.7
19316.0,1.78
19318.0,1.8
19320.0,1.84
19322.0,1.7
19324.0,1.11
19326.0,0.67
19329.0,1.0
19331.0,1.59
19333.0,1.99
19335.0,1.97
19337.0,1.78
19339.0,1.56
19341.0,1.83
19343.0,1.71
19345.0,1.63
19346.0,0.9
19348.0,0.9
19350.0,2.54
19352.0,2.13
19354.0,1.64
19356.0,1.83
19358.0,1.62
19360.0,1.62
19362.0,1.61
19364.0,1.39
19366.0,1.16
19368.0,1.08
19371.0,0.63
19373.0,1.26
19375.0,1.95
19377.0,1.74
19379.0,0.71
19381.0,1.25
19383.0,1.13
19385.0,1.37
19387.0,1.36
19388.0,1.35
19390.0,1.3
19392.0,1.25
19394.0,1.01
19396.0,1.12
19398.0,1.07
19400.0,1.23
19402.0,0.93
19404.0,1.33
19406.0,1.59
19408.0,1.64
19410.0,1.31
19412.0,1.35
19415.0,1.38
19417.0,1.11
19419.0,1.19
19421.0,1.05
19423.0,1.44
19425.0,1.43
19427.0,0.79
19429.0,0.89
19431.0,1.28
19432.0,1.28
19434.0,1.06
19436.0,0.81
19438.0,2.15
19440.0,2.16
19442.0,2.25
19444.0,1.81
19446.0,1.37
19448.0,1.26
19450.0,1.24
19452.0,0.51
19454.0,0.97
19457.0,1.2
19459.0,1.43
19461.0,1.71
19463.0,1.61
19465.0,1.28
19467.0,0.56
19469.0,1.27
