time,ch1
1.0,1.18
3.0,1.46
5.0,1.42
7.0,1.22
9.0,1.08
11.0,0.89
13.0,1.07
15.0,1.31
17.0,1.15
19.0,1.24
21.0,1.12
23.0,1.35
25.0,1.64
27.0,1.46
29.0,1.57
31.0,1.56
33.0,1.56
35.0,1.67
37.0,1.29
39.0,1.13
41.0,1.25
44.0,1.37
46.0,1.74
47.0,1.75
49.0,1.71
51.0,1.71
53.0,1.72
55.0,1.68
57.0,1.57
59.0,1.52
61.0,1.63
63.0,1.6
65.0,1.91
67.0,1.63
69.0,1.67
71.0,1.73
73.0,1.85
75.0,1.79
77.0,1.41
79.0,1.39
81.0,1.65
83.0,1.35
86.0,1.53
88.0,1.22
90.0,1.1
92.0,1.16
94.0,1.15
95.0,1.32
97.0,1.44
99.0,1.29
101.0,1.36
103.0,1.58
105.0,1.85
107.0,1.72
109.0,1.82
111.0,1.83
113.0,1.92
115.0,1.91
117.0,1.6
119.0,1.42
121.0,1.75
123.0,1.84
125.0,2.05
128.0,1.8
130.0,1.72
132.0,1.72
134.0,1.73
136.0,1.84
138.0,1.84
139.0,1.79
141.0,1.76
143.0,1.74
145.0,1.94
147.0,1.78
149.0,1.54
151.0,1.64
153.0,1.89
155.0,2.03
157.0,1.85
159.0,1.62
161.0,1.71
163.0,1.89
165.0,1.92
167.0,1.95
169.0,1.54
172.0,1.88
174.0,2.05
176.0,1.88
178.0,1.69
180.0,1.75
181.0,1.58
183.0,1.65
185.0,1.72
187.0,1.71
189.0,1.59
191.0,1.76
193.0,1.71
195.0,1.79
197.0,1.61
199.0,1.47
201.0,1.36
203.0,1.35
205.0,1.47
207.0,1.56
209.0,1.1
211.0,1.28
214.0,1.5
216.0,1.67
218.0,1.8
220.0,1.48
222.0,1.55
224.0,1.76
225.0,1.79
227.0,1.7
229.0,1.62
231.0,1.58
233.0,1.7
235.0,1.65
237.0,1.62
239.0,1.47
241.0,1.35
243.0,1.35
245.0,1.41
247.0,1.36
249.0,1.22
251.0,1.26
253.0,1.64
256.0,1.66
258.0,1.4
260.0,1.29
262.0,1.35
264.0,1.35
266.0,1.55
267.0,1.32
269.0,1.5
271.0,1.46
273.0,1.63
275.0,1.45
277.0,1.36
279.0,1.25
281.0,1.22
283.0,1.33
285.0,1.44
287.0,1.32
289.0,1.23
291.0,0.86
293.0,0.72
295.0,0.78
297.0,0.64
300.0,0.81
302.0,0.92
304.0,0.98
306.0,1.16
308.0,1.0
310.0,0.95
311.0,0.75
313.0,0.93
315.0,0.97
317.0,0.8
319.0,0.77
321.0,1.03
323.0,1.19
325.0,1.28
327.0,1.14
329.0,1.01
331.0,1.1
333.0,1.12
335.0,1.14
337.0,1.16
339.0,1.2
342.0,0.97
344.0,1.05
346.0,1.22
348.0,1.1
350.0,0.72
352.0,0.87
353.0,0.88
355.0,0.91
357.0,0.79
359.0,0.62
361.0,0.78
363.0,1.0
365.0,1.03
367.0,0.98
369.0,0.82
371.0,0.72
373.0,0.46
375.0,0.06
377.0,0.0
379.0,0.0
381.0,0.0
384.0,0.0
386.0,0.0
388.0,0.05
390.0,0.0
392.0,0.0
394.0,0.27
395.0,0.16
397.0,0.0
399.0,0.0
401.0,0.0
403.0,0.0
405.0,0.14
407.0,0.16
409.0,0.0
411.0,0.15
413.0,0.5
415.0,0.45
417.0,0.31
419.0,0.51
421.0,1.09
423.0,1.13
425.0,1.35
428.0,1.46
430.0,1.41
432.0,1.43
434.0,1.8
436.0,1.77
438.0,2.08
439.0,2.86
441.0,3.3
443.0,3.3
445.0,3.3
447.0,3.3
449.0,3.3
451.0,3.3
453.0,3.3
455.0,3.24
457.0,2.99
459.0,2.67
461.0,2.65
463.0,2.74
465.0,2.96
467.0,2.71
470.0,2.45
472.0,2.7
474.0,2.97
476.0,2.67
478.0,2.21
480.0,2.59
481.0,2.47
483.0,2.39
485.0,2.62
487.0,2.65
489.0,2.48
491.0,2.25
493.0,2.39
495.0,2.47
497.0,2.68
499.0,2.82
501.0,3.06
503.0,3.3
505.0,3.3
507.0,2.99
509.0,2.9
512.0,2.79
514.0,2.85
516.0,2.66
518.0,2.45
520.0,2.31
522.0,2.54
523.0,2.57
525.0,2.69
527.0,2.52
529.0,2.16
531.0,2.23
533.0,2.23
535.0,1.9
537.0,1.74
539.0,1.94
541.0,2.09
543.0,2.09
545.0,2.29
547.0,1.95
549.0,1.69
551.0,1.95
553.0,2.31
556.0,1.98
558.0,1.69
560.0,1.73
562.0,1.75
564.0,1.53
566.0,1.63
567.0,1.64
569.0,1.37
571.0,1.53
573.0,1.82
575.0,1.35
577.0,1.21
579.0,1.29
581.0,1.37
583.0,1.48
585.0,1.47
587.0,1.43
589.0,1.3
591.0,1.2
593.0,1.45
595.0,1.15
598.0,1.01
600.0,0.48
602.0,0.81
604.0,1.1
606.0,1.35
608.0,1.16
609.0,1.25
611.0,1.2
613.0,1.19
615.0,0.87
617.0,0.67
619.0,0.78
621.0,0.98
623.0,1.0
625.0,0.86
627.0,0.69
629.0,0.97
631.0,0.99
633.0,1.18
635.0,0.97
637.0,0.92
640.0,0.91
642.0,1.08
644.0,1.1
646.0,1.1
648.0,1.13
650.0,1.15
651.0,1.35
653.0,1.31
655.0,1.24
657.0,0.9
659.0,0.68
661.0,0.96
663.0,1.23
665.0,1.44
667.0,1.37
669.0,1.77
671.0,1.74
673.0,1.53
675.0,1.47
677.0,1.17
679.0,1.0
681.0,1.18
684.0,1.29
686.0,1.45
688.0,1.57
690.0,1.39
692.0,1.23
694.0,1.08
695.0,1.2
697.0,1.18
699.0,1.08
701.0,1.02
703.0,1.52
705.0,1.66
707.0,1.1
709.0,1.07
711.0,1.2
713.0,1.32
715.0,1.3
717.0,0.95
719.0,1.24
721.0,1.44
723.0,1.78
726.0,1.69
728.0,1.38
730.0,1.07
732.0,1.07
734.0,1.24
736.0,0.94
737.0,0.9
739.0,1.43
741.0,1.49
743.0,1.39
745.0,1.24
747.0,1.24
749.0,1.23
751.0,1.29
753.0,1.41
755.0,1.6
757.0,1.67
759.0,1.77
761.0,1.59
763.0,1.79
765.0,1.75
768.0,1.58
770.0,1.69
772.0,1.96
774.0,2.11
776.0,2.2
778.0,2.32
779.0,1.99
781.0,2.05
783.0,2.03
785.0,1.95
787.0,1.67
789.0,1.69
791.0,1.44
793.0,1.76
795.0,2.1
797.0,1.8
799.0,1.38
801.0,1.55
803.0,1.72
805.0,1.57
807.0,1.24
809.0,1.24
812.0,1.66
814.0,1.96
816.0,1.51
818.0,1.36
820.0,1.2
822.0,1.58
823.0,1.79
825.0,1.68
827.0,1.33
829.0,1.87
831.0,2.15
833.0,2.0
835.0,1.57
837.0,1.71
839.0,1.7
841.0,1.52
843.0,2.07
845.0,2.24
847.0,2.14
849.0,2.31
851.0,2.08
854.0,2.03
856.0,1.82
858.0,1.44
860.0,1.29
862.0,1.55
864.0,1.76
865.0,1.75
867.0,1.96
869.0,1.58
871.0,1.51
873.0,1.34
875.0,1.0
877.0,0.87
879.0,0.8
881.0,0.84
883.0,1.4
885.0,1.85
887.0,1.64
889.0,1.3
891.0,1.16
893.0,1.26
896.0,0.98
898.0,0.78
900.0,1.15
902.0,1.07
904.0,1.65
906.0,2.03
907.0,1.49
909.0,1.21
911.0,1.26
913.0,1.25
915.0,1.32
917.0,0.95
919.0,1.0
921.0,1.35
923.0,1.93
925.0,1.62
927.0,1.09
929.0,1.24
931.0,1.39
933.0,1.27
935.0,1.19
937.0,1.22
940.0,1.14
942.0,1.91
944.0,2.0
946.0,1.89
948.0,1.38
950.0,1.17
951.0,1.54
953.0,1.67
955.0,1.43
957.0,1.06
959.0,1.51
961.0,1.95
963.0,1.71
965.0,1.5
967.0,1.48
969.0,1.57
971.0,1.46
973.0,1.39
975.0,1.24
977.0,1.04
979.0,1.56
982.0,1.88
984.0,1.71
986.0,1.63
988.0,1.58
990.0,1.42
992.0,1.32
993.0,1.56
995.0,1.38
997.0,1.32
999.0,1.15
1001.0,1.91
1003.0,2.11
1005.0,1.89
1007.0,1.41
1009.0,1.19
1011.0,1.31
1013.0,1.49
1015.0,1.32
1017.0,1.16
1019.0,0.86
1021.0,1.53
1024.0,1.95
1026.0,1.46
1028.0,1.22
1030.0,1.21
1032.0,1.27
1034.0,1.38
1036.0,1.19
1037.0,1.08
1039.0,1.11
1041.0,1.36
1043.0,2.01
1045.0,1.83
1047.0,1.51
1049.0,1.37
1051.0,1.45
1053.0,1.31
1055.0,1.41
1057.0,1.06
1059.0,1.24
1061.0,1.44
1063.0,1.96
1065.0,2.15
1068.0,1.77
1070.0,1.49
1072.0,1.7
1074.0,1.8
1076.0,1.44
1078.0,1.21
1079.0,1.38
1081.0,1.44
1083.0,1.69
1085.0,1.47
1087.0,1.83
1089.0,2.1
1091.0,1.86
1093.0,1.7
1095.0,1.42
1097.0,1.5
1099.0,1.52
1101.0,1.74
1103.0,1.76
1105.0,1.84
1107.0,1.86
1110.0,1.65
1112.0,1.75
1114.0,2.13
1116.0,1.94
1118.0,1.62
1120.0,1.44
1121.0,1.54
1123.0,1.65
1125.0,1.69
1127.0,1.6
1129.0,1.5
1131.0,1.44
1133.0,1.78
1135.0,2.0
1137.0,2.05
1139.0,1.71
1141.0,1.67
1143.0,1.82
1145.0,1.91
1147.0,1.62
1149.0,1.56
1152.0,1.53
1154.0,1.83
1156.0,1.76
1158.0,1.57
1160.0,1.65
1162.0,1.75
1164.0,1.86
1165.0,1.83
1167.0,1.25
1169.0,1.57
1171.0,1.61
1173.0,1.75
1175.0,1.38
1177.0,1.26
1179.0,1.3
1181.0,1.57
1183.0,1.77
1185.0,1.83
1187.0,1.77
1189.0,1.75
1191.0,1.58
1193.0,1.79
1196.0,1.5
1198.0,1.44
1200.0,1.6
1202.0,1.54
1204.0,1.68
1206.0,1.75
1207.0,1.51
1209.0,1.53
1211.0,1.54
1213.0,1.67
1215.0,1.34
1217.0,1.45
1219.0,1.49
1221.0,1.5
1223.0,1.59
1225.0,1.56
1227.0,1.42
1229.0,1.44
1231.0,1.54
1233.0,1.68
1235.0,1.35
1238.0,1.43
1240.0,1.29
1242.0,1.57
1244.0,1.85
1246.0,1.78
1248.0,1.46
1250.0,1.47
1251.0,1.49
1253.0,1.71
1255.0,1.55
1257.0,1.23
1259.0,1.24
1261.0,1.38
1263.0,1.62
1265.0,1.53
1267.0,1.41
1269.0,1.23
1271.0,1.55
1273.0,1.69
1275.0,1.56
1277.0,1.41
1280.0,1.33
1282.0,1.3
1284.0,1.55
1286.0,1.65
1288.0,1.75
1290.0,1.47
1292.0,1.12
1293.0,1.24
1295.0,1.07
1297.0,1.13
1299.0,1.21
1301.0,1.31
1303.0,1.38
1305.0,1.22
1307.0,1.02
1309.0,0.98
1311.0,1.01
1313.0,1.36
1315.0,1.09
1317.0,1.02
1319.0,1.11
1321.0,1.51
1324.0,1.61
1326.0,1.39
1328.0,1.13
1330.0,1.08
1332.0,1.25
1334.0,1.6
1336.0,1.55
1337.0,1.44
1339.0,0.77
1341.0,1.15
1343.0,1.55
1345.0,1.43
1347.0,1.43
1349.0,1.37
1351.0,1.11
1353.0,1.57
1355.0,1.57
1357.0,1.09
1359.0,1.2
1361.0,1.4
1363.0,1.67
1366.0,1.84
1368.0,1.67
1370.0,1.6
1372.0,1.63
1374.0,1.64
1376.0,1.41
1378.0,1.28
1379.0,1.34
1381.0,1.48
1383.0,1.59
1385.0,1.64
1387.0,1.65
1389.0,1.51
1391.0,1.43
1393.0,1.53
1395.0,1.31
1397.0,1.35
1399.0,1.43
1401.0,1.41
1403.0,1.47
1405.0,1.31
1408.0,1.28
1410.0,1.34
1412.0,1.45
1414.0,1.62
1416.0,1.31
1418.0,1.06
1420.0,1.32
1422.0,1.61
1423.0,1.68
1425.0,1.45
1427.0,1.31
1429.0,1.32
1431.0,1.64
1433.0,1.69
1435.0,1.46
1437.0,1.22
1439.0,1.15
1441.0,1.27
1443.0,1.62
1445.0,1.52
1447.0,1.46
1449.0,1.27
1452.0,1.35
1454.0,1.61
1456.0,1.63
1458.0,1.22
1460.0,1.09
1462.0,1.31
1464.0,1.5
1465.0,1.4
1467.0,1.38
1469.0,1.15
1471.0,1.28
1473.0,1.26
1475.0,0.99
1477.0,1.09
1479.0,1.14
1481.0,1.09
1483.0,1.43
1485.0,1.36
1487.0,1.29
1489.0,1.28
1491.0,1.36
1494.0,1.45
1496.0,1.1
1498.0,1.25
1500.0,1.06
1502.0,1.26
1504.0,1.64
1506.0,1.57
1508.0,1.21
1509.0,1.39
1511.0,1.49
1513.0,1.56
1515.0,1.4
1517.0,1.12
1519.0,0.0
1521.0,0.0
1523.0,0.0
1525.0,0.0
1527.0,0.0
1529.0,0.0
1531.0,0.0
1533.0,0.0
1536.0,0.0
1538.0,0.0
1540.0,0.0
1542.0,0.0
1544.0,0.0
1546.0,0.0
1548.0,0.0
1550.0,0.0
1551.0,0.01
1553.0,0.46
1555.0,0.24
1557.0,0.17
1559.0,0.34
1561.0,0.61
1563.0,1.11
1565.0,1.17
1567.0,0.96
1569.0,0.99
1571.0,1.14
1573.0,1.34
1575.0,1.12
1577.0,1.19
1580.0,1.32
1582.0,1.52
1584.0,1.68
1586.0,1.5
1588.0,1.71
1590.0,1.55
1592.0,1.59
1594.0,1.61
1595.0,1.33
1597.0,1.31
1599.0,1.4
1601.0,1.7
1603.0,1.92
1605.0,1.67
1607.0,1.45
1609.0,1.49
1611.0,1.76
1613.0,1.84
1615.0,1.71
1617.0,1.56
1619.0,1.75
1622.0,1.82
1624.0,2.05
1626.0,1.83
1628.0,1.58
1630.0,1.59
1632.0,2.03
1634.0,2.11
1636.0,1.86
1638.0,1.88
1639.0,2.03
1641.0,2.14
1643.0,2.33
1645.0,2.22
1647.0,1.75
1649.0,1.97
1651.0,2.09
1653.0,2.25
1655.0,2.08
1657.0,1.95
1659.0,1.98
1661.0,2.2
1664.0,2.35
1666.0,2.39
1668.0,2.3
1670.0,2.17
1672.0,2.19
1674.0,2.12
1676.0,2.02
1678.0,1.84
1680.0,1.84
1681.0,2.11
1683.0,2.25
1685.0,1.95
1687.0,1.97
1689.0,2.09
1691.0,2.14
1693.0,2.12
1695.0,1.93
1697.0,1.73
1699.0,2.1
1701.0,2.14
1703.0,2.29
1705.0,2.26
1708.0,2.1
1710.0,1.81
1712.0,1.99
1714.0,2.26
1716.0,1.88
1718.0,1.8
1720.0,1.81
1722.0,2.18
1724.0,2.1
1725.0,2.09
1727.0,2.25
1729.0,2.27
1731.0,2.33
1733.0,2.8
1735.0,2.48
1737.0,2.34
1739.0,2.24
1741.0,2.2
1743.0,2.41
1745.0,2.21
1747.0,2.23
1750.0,2.47
1752.0,2.57
1754.0,2.45
1756.0,2.36
1758.0,2.72
1760.0,2.74
1762.0,2.9
1764.0,3.3
1766.0,3.27
1768.0,3.3
1769.0,3.3
1771.0,3.3
1773.0,3.07
1775.0,2.77
1777.0,2.98
1779.0,3.01
1781.0,3.02
1783.0,3.13
1785.0,3.02
1787.0,3.01
1789.0,2.95
1792.0,2.93
1794.0,2.8
1796.0,2.49
1798.0,2.54
1800.0,2.75
1802.0,2.89
1804.0,3.13
1806.0,2.94
1808.0,2.26
1810.0,1.63
1811.0,1.69
1813.0,1.44
1815.0,1.31
1817.0,1.2
1819.0,1.1
1821.0,1.03
1823.0,1.39
1825.0,1.68
1827.0,1.29
1829.0,0.93
1831.0,0.9
1833.0,0.27
1836.0,0.0
1838.0,0.0
1840.0,0.0
1842.0,0.0
1844.0,0.08
1846.0,0.15
1848.0,0.09
1850.0,0.13
1852.0,0.2
1854.0,0.3
1855.0,0.01
1857.0,0.0
1859.0,0.05
1861.0,0.12
1863.0,0.37
1865.0,0.35
1867.0,0.13
1869.0,0.89
1871.0,0.79
1873.0,0.65
1875.0,0.25
1878.0,0.1
1880.0,0.16
1882.0,0.75
1884.0,1.6
1886.0,1.71
1888.0,1.38
1890.0,1.29
1892.0,1.11
1894.0,1.19
1896.0,0.97
1897.0,0.79
1899.0,0.19
1901.0,0.2
1903.0,0.34
1905.0,0.36
1907.0,0.38
1909.0,0.72
1911.0,0.85
1913.0,0.99
1915.0,0.9
1917.0,0.88
1920.0,0.86
1922.0,1.02
1924.0,1.45
1926.0,0.99
1928.0,0.6
1930.0,0.65
1932.0,0.76
1934.0,0.55
1936.0,0.72
1938.0,0.89
1940.0,1.08
1941.0,1.02
1943.0,1.02
1945.0,0.51
1947.0,0.21
1949.0,0.38
1951.0,0.75
1953.0,0.55
1955.0,0.47
1957.0,0.05
1959.0,0.13
1961.0,0.29
1964.0,0.7
1966.0,0.66
1968.0,0.52
1970.0,0.57
1972.0,0.71
1974.0,0.83
1976.0,0.6
1978.0,0.75
1980.0,1.08
1982.0,1.37
1984.0,1.66
1985.0,1.4
1987.0,1.23
1989.0,1.17
1991.0,1.19
1993.0,1.49
1995.0,1.36
1997.0,1.49
1999.0,1.81
2001.0,1.64
2003.0,1.74
2006.0,1.74
2008.0,1.76
2010.0,2.0
2012.0,2.13
2014.0,1.99
2016.0,1.94
2018.0,1.29
2020.0,1.53
2022.0,1.44
2024.0,1.32
2026.0,1.39
2027.0,1.41
2029.0,1.32
2031.0,1.42
2033.0,1.46
2035.0,1.1
2037.0,1.12
2039.0,1.47
2041.0,1.59
2043.0,1.9
2045.0,1.93
2048.0,1.98
2050.0,2.16
2052.0,2.05
2054.0,1.78
2056.0,1.75
2058.0,1.89
2060.0,1.91
2062.0,2.13
2064.0,2.07
2066.0,2.07
2068.0,2.07
2070.0,2.26
2071.0,2.22
2073.0,2.09
2075.0,1.97
2077.0,1.98
2079.0,1.9
2081.0,2.03
2083.0,1.98
2085.0,2.06
2087.0,1.89
2089.0,1.97
2092.0,2.03
2094.0,1.83
2096.0,1.67
2098.0,1.68
2100.0,1.82
2102.0,2.02
2104.0,2.02
2106.0,1.76
2108.0,1.54
2110.0,1.43
2112.0,1.57
2113.0,1.53
2115.0,1.36
2117.0,1.34
2119.0,1.52
2121.0,1.5
2123.0,1.44
2125.0,1.25
2127.0,1.28
2129.0,1.31
2131.0,1.61
2134.0,1.72
2136.0,1.56
2138.0,1.29
2140.0,1.62
2142.0,1.73
2144.0,1.77
2146.0,1.51
2148.0,1.51
2150.0,1.72
2152.0,1.88
2154.0,1.76
2156.0,1.34
2157.0,1.29
2159.0,1.52
2161.0,1.68
2163.0,1.97
2165.0,1.86
2167.0,1.74
2169.0,1.66
2171.0,1.73
2173.0,1.35
2176.0,1.12
2178.0,1.09
2180.0,1.46
2182.0,1.54
2184.0,1.61
2186.0,1.55
2188.0,1.26
2190.0,1.16
2192.0,1.41
2194.0,1.43
2196.0,1.2
2198.0,1.13
2199.0,1.5
2201.0,1.36
2203.0,1.46
2205.0,1.33
2207.0,0.87
2209.0,1.08
2211.0,1.33
2213.0,1.17
2215.0,1.29
2217.0,1.2
2220.0,1.12
2222.0,1.15
2224.0,1.21
2226.0,1.22
2228.0,1.12
2230.0,1.25
2232.0,1.52
2234.0,1.5
2236.0,1.44
2238.0,1.47
2240.0,1.28
2242.0,1.57
2243.0,1.57
2245.0,1.5
2247.0,1.04
2249.0,1.02
2251.0,1.1
2253.0,1.06
2255.0,0.71
2257.0,0.81
2259.0,1.06
2262.0,1.19
2264.0,1.32
2266.0,1.35
2268.0,1.2
2270.0,1.11
2272.0,1.17
2274.0,1.08
2276.0,0.78
2278.0,0.79
2280.0,0.93
2282.0,1.23
2284.0,1.34
2285.0,1.31
2287.0,1.18
2289.0,1.41
2291.0,1.63
2293.0,1.6
2295.0,1.39
2297.0,1.31
2299.0,1.37
2301.0,2.19
2304.0,2.62
2306.0,2.53
2308.0,2.41
2310.0,2.5
2312.0,2.57
2314.0,2.41
2316.0,2.39
2318.0,2.17
2320.0,2.0
2322.0,2.06
2324.0,2.01
2326.0,1.98
2328.0,2.04
2329.0,2.09
2331.0,2.19
2333.0,2.09
2335.0,1.99
2337.0,1.55
2339.0,1.82
2341.0,2.03
2343.0,2.11
2345.0,1.86
2348.0,1.91
2350.0,2.04
2352.0,2.09
2354.0,1.83
2356.0,1.57
2358.0,1.32
2360.0,1.66
2362.0,1.9
2364.0,1.96
2366.0,1.83
2368.0,1.74
2370.0,1.7
2371.0,1.84
2373.0,1.78
2375.0,1.46
2377.0,1.61
2379.0,1.74
2381.0,1.95
2383.0,1.95
2385.0,1.85
2387.0,1.69
2390.0,1.68
2392.0,1.82
2394.0,1.75
2396.0,1.78
2398.0,1.85
2400.0,1.91
2402.0,1.89
2404.0,1.95
2406.0,1.68
2408.0,1.75
2410.0,1.81
2412.0,1.95
2414.0,1.97
2415.0,1.67
2417.0,1.69
2419.0,1.72
2421.0,1.86
2423.0,1.91
2425.0,1.83
2427.0,1.61
2429.0,1.72
2432.0,1.58
2434.0,1.64
2436.0,1.53
2438.0,1.35
2440.0,1.39
2442.0,1.65
2444.0,1.63
2446.0,1.66
2448.0,1.3
2450.0,1.58
2452.0,1.63
2454.0,1.26
2456.0,0.94
2457.0,1.02
2459.0,1.11
2461.0,1.57
2463.0,1.53
2465.0,1.62
2467.0,1.5
2469.0,1.45
2471.0,1.63
2473.0,1.54
2476.0,1.34
2478.0,1.54
2480.0,1.53
2482.0,1.68
2484.0,1.82
2486.0,1.77
2488.0,1.54
2490.0,1.59
2492.0,1.77
2494.0,1.73
2496.0,1.57
2498.0,1.55
2500.0,1.79
2501.0,1.91
2503.0,2.03
2505.0,1.68
2507.0,1.6
2509.0,1.65
2511.0,1.74
2513.0,1.48
2515.0,1.24
2518.0,1.48
2520.0,1.67
2522.0,1.64
2524.0,1.52
2526.0,1.53
2528.0,1.35
2530.0,1.33
2532.0,1.6
2534.0,1.5
2536.0,1.42
2538.0,1.24
2540.0,1.5
2542.0,1.67
2544.0,1.69
2545.0,1.45
2547.0,1.5
2549.0,1.59
2551.0,1.62
2553.0,1.42
2555.0,1.18
2557.0,1.15
2560.0,1.22
2562.0,1.4
2564.0,1.51
2566.0,1.52
2568.0,1.5
2570.0,1.3
2572.0,1.48
2574.0,1.32
2576.0,1.09
2578.0,1.03
2580.0,1.34
2582.0,1.69
2584.0,1.87
2586.0,1.7
2588.0,1.51
2589.0,1.41
2591.0,1.55
2593.0,1.4
2595.0,1.34
2597.0,1.38
2599.0,1.49
2601.0,1.59
2604.0,1.67
2606.0,1.48
2608.0,1.28
2610.0,1.31
2612.0,1.55
2614.0,1.5
2616.0,1.37
2618.0,1.55
2620.0,1.46
2622.0,1.6
2624.0,1.41
2626.0,1.28
2628.0,1.28
2630.0,1.5
2631.0,1.51
2633.0,1.27
2635.0,1.2
2637.0,1.24
2639.0,1.18
2641.0,1.45
2643.0,1.51
2646.0,1.53
2648.0,1.55
2650.0,1.62
2652.0,1.64
2654.0,1.55
2656.0,1.3
2658.0,1.08
2660.0,0.95
2662.0,1.6
2664.0,1.75
2666.0,1.48
2668.0,1.55
2670.0,1.46
2672.0,1.54
2674.0,1.17
2675.0,1.03
2677.0,0.98
2679.0,1.35
2681.0,1.85
2683.0,2.05
2685.0,1.49
2688.0,1.21
2690.0,1.39
2692.0,1.74
2694.0,1.71
2696.0,1.16
2698.0,1.58
2700.0,2.09
2702.0,2.19
2704.0,2.1
2706.0,1.94
2708.0,1.72
2710.0,2.01
2712.0,2.2
2714.0,1.55
2716.0,1.76
2717.0,1.79
2719.0,1.69
2721.0,1.86
2723.0,1.87
2725.0,1.64
2727.0,1.72
2729.0,1.72
2732.0,1.82
2734.0,1.74
2736.0,1.38
2738.0,1.39
2740.0,1.8
2742.0,1.84
2744.0,1.74
2746.0,1.91
2748.0,1.72
2750.0,1.56
2752.0,1.77
2754.0,1.55
2756.0,1.3
2758.0,1.09
2760.0,1.19
2761.0,1.22
2763.0,0.87
2765.0,0.65
2767.0,0.68
2769.0,1.04
2771.0,1.02
2774.0,0.48
2776.0,0.19
2778.0,0.24
2780.0,0.4
2782.0,0.72
2784.0,0.65
2786.0,0.14
2788.0,0.0
2790.0,0.09
2792.0,0.34
2794.0,0.0
2796.0,0.01
2798.0,0.0
2800.0,0.08
2802.0,0.36
2803.0,0.2
2805.0,0.09
2807.0,0.14
2809.0,0.34
2811.0,0.74
2813.0,0.77
2816.0,0.53
2818.0,0.76
2820.0,0.6
2822.0,0.75
2824.0,0.74
2826.0,0.75
2828.0,0.49
2830.0,0.47
2832.0,0.75
2834.0,1.11
2836.0,0.79
2838.0,0.34
2840.0,0.32
2842.0,0.6
2844.0,0.58
2846.0,0.67
2847.0,0.78
2849.0,1.02
2851.0,1.14
2853.0,1.04
2855.0,0.75
2857.0,0.44
2860.0,0.78
2862.0,1.16
2864.0,1.13
2866.0,1.2
2868.0,1.33
2870.0,1.37
2872.0,1.67
2874.0,1.28
2876.0,1.52
2878.0,1.6
2880.0,1.71
2882.0,1.85
2884.0,1.68
2886.0,1.55
2888.0,1.2
2889.0,1.2
2891.0,1.2
2893.0,1.09
2895.0,0.9
2897.0,1.02
2899.0,1.14
2902.0,1.19
2904.0,1.27
2906.0,1.19
2908.0,1.18
2910.0,1.03
2912.0,1.33
2914.0,0.94
2916.0,1.17
2918.0,1.26
2920.0,1.09
2922.0,1.44
2924.0,1.45
2926.0,1.49
2928.0,1.35
2930.0,1.27
2932.0,1.53
2933.0,1.65
2935.0,1.2
2937.0,1.55
2939.0,1.75
2941.0,1.76
2944.0,1.81
2946.0,1.75
2948.0,1.77
2950.0,2.12
2952.0,2.02
2954.0,1.66
2956.0,1.43
2958.0,1.5
2960.0,1.7
2962.0,1.95
2964.0,2.02
2966.0,1.78
2968.0,1.76
2970.0,1.7
2972.0,2.05
2974.0,1.53
2976.0,1.37
2977.0,1.43
2979.0,1.47
2981.0,1.88
2983.0,1.62
2985.0,1.45
2988.0,1.6
2990.0,1.87
2992.0,1.96
2994.0,1.7
2996.0,1.37
2998.0,1.5
3000.0,1.67
3002.0,1.82
3004.0,1.51
3006.0,1.34
3008.0,1.45
3010.0,1.44
3012.0,1.57
3014.0,1.45
3016.0,1.22
3018.0,1.46
3019.0,1.62
3021.0,1.86
3023.0,1.88
3025.0,1.9
3027.0,1.62
3030.0,1.79
3032.0,1.82
3034.0,1.89
3036.0,1.8
3038.0,1.81
3040.0,1.74
3042.0,2.07
3044.0,2.03
3046.0,1.67
3048.0,1.47
3050.0,1.92
3052.0,1.98
3054.0,1.69
3056.0,1.5
3058.0,1.69
3060.0,1.83
3062.0,2.11
3063.0,2.25
3065.0,1.97
3067.0,2.23
3069.0,2.19
3072.0,2.36
3074.0,2.25
3076.0,2.08
3078.0,2.13
3080.0,2.39
3082.0,2.39
3084.0,2.28
3086.0,2.27
3088.0,2.23
3090.0,2.02
3092.0,2.04
3094.0,1.95
3096.0,1.81
3098.0,1.72
3100.0,2.02
3102.0,2.18
3104.0,2.15
3106.0,1.78
3107.0,1.64
3109.0,1.94
3111.0,2.34
3113.0,2.24
3116.0,2.21
3118.0,2.26
3120.0,2.33
3122.0,2.45
3124.0,2.22
3126.0,1.87
3128.0,1.8
3130.0,1.55
3132.0,1.24
3134.0,1.34
3136.0,1.04
3138.0,1.2
3140.0,1.48
3142.0,1.79
3144.0,1.46
3146.0,1.3
3148.0,1.47
3150.0,1.74
3151.0,1.63
3153.0,1.56
3155.0,1.59
3158.0,1.54
3160.0,1.59
3162.0,1.89
3164.0,2.01
3166.0,1.75
3168.0,1.78
3170.0,2.12
3172.0,2.09
3174.0,1.85
3176.0,1.58
3178.0,1.56
3180.0,1.75
3182.0,1.99
3184.0,1.93
3186.0,1.81
3188.0,1.58
3190.0,1.57
3192.0,1.56
3193.0,1.15
3195.0,1.04
3197.0,1.15
3200.0,1.43
3202.0,1.49
3204.0,1.34
3206.0,1.08
3208.0,0.98
3210.0,1.25
3212.0,1.07
3214.0,1.1
3216.0,1.28
3218.0,1.41
3220.0,1.25
3222.0,1.47
3224.0,1.45
3226.0,1.21
3228.0,1.36
3230.0,1.38
3232.0,1.38
3234.0,1.23
3236.0,1.05
3237.0,0.5
3239.0,0.8
3241.0,1.14
3244.0,0.98
3246.0,0.81
3248.0,0.99
3250.0,1.04
3252.0,1.19
3254.0,1.15
3256.0,1.09
3258.0,1.01
3260.0,1.2
3262.0,1.45
3264.0,1.54
3266.0,1.35
3268.0,1.5
3270.0,1.37
3272.0,1.3
3274.0,1.15
3276.0,0.95
3278.0,1.23
3279.0,1.39
3281.0,1.6
3283.0,1.59
3286.0,1.35
3288.0,1.3
3290.0,1.37
3292.0,1.46
3294.0,1.46
3296.0,1.4
3298.0,1.46
3300.0,1.68
3302.0,2.04
3304.0,1.97
3306.0,1.52
3308.0,1.63
3310.0,1.7
3312.0,1.81
3314.0,1.69
3316.0,1.45
3318.0,1.57
3320.0,1.84
3322.0,1.92
3323.0,1.59
3325.0,1.79
3328.0,1.75
3330.0,1.82
3332.0,1.91
3334.0,1.91
3336.0,1.58
3338.0,1.66
3340.0,1.83
3342.0,2.13
3344.0,1.86
3346.0,1.86
3348.0,1.85
3350.0,1.83
3352.0,1.31
3354.0,1.44
3356.0,0.89
3358.0,1.08
3360.0,1.34
3362.0,1.66
3364.0,1.46
3365.0,1.37
3367.0,1.46
3369.0,1.55
3372.0,1.45
3374.0,1.3
3376.0,1.18
3378.0,1.23
3380.0,1.42
3382.0,1.48
3384.0,1.47
3386.0,0.97
3388.0,1.29
3390.0,1.22
3392.0,1.2
3394.0,1.22
3396.0,1.23
3398.0,1.45
3400.0,1.59
3402.0,1.66
3404.0,1.66
3406.0,1.27
3408.0,1.49
3409.0,1.62
3411.0,1.37
3414.0,1.43
3416.0,1.42
3418.0,1.3
3420.0,1.31
3422.0,1.45
3424.0,1.45
3426.0,1.52
3428.0,1.3
3430.0,1.56
3432.0,1.59
3434.0,1.39
3436.0,1.23
3438.0,1.26
3440.0,1.44
3442.0,1.8
3444.0,1.6
3446.0,1.4
3448.0,1.65
3450.0,1.67
3452.0,1.54
3453.0,1.52
3456.0,1.16
3458.0,1.19
3460.0,1.58
3462.0,1.72
3464.0,1.7
3466.0,1.68
3468.0,1.63
3470.0,1.41
3472.0,1.49
3474.0,1.39
3476.0,1.1
3478.0,1.37
3480.0,1.81
3482.0,1.87
3484.0,1.75
3486.0,1.57
3488.0,1.44
3490.0,1.43
3492.0,1.39
3494.0,1.25
3495.0,1.22
3497.0,1.35
3500.0,1.59
3502.0,1.74
3504.0,1.54
3506.0,1.45
3508.0,1.34
3510.0,1.52
3512.0,1.58
3514.0,1.58
3516.0,1.12
3518.0,1.46
3520.0,1.47
3522.0,1.7
3524.0,1.65
3526.0,1.5
3528.0,1.61
3530.0,1.44
3532.0,1.64
3534.0,1.77
3536.0,1.55
3538.0,1.41
3539.0,1.51
3542.0,1.62
3544.0,1.49
3546.0,1.56
3548.0,1.55
3550.0,1.74
3552.0,1.7
3554.0,1.6
3556.0,1.45
3558.0,1.41
3560.0,1.8
3562.0,2.07
3564.0,1.96
3566.0,1.59
3568.0,1.38
3570.0,1.62
3572.0,1.69
3574.0,1.58
3576.0,1.3
3578.0,1.48
3580.0,1.66
3582.0,1.9
3584.0,1.95
3586.0,1.5
3588.0,1.13
3590.0,1.76
3592.0,1.85
3594.0,1.56
3596.0,0.93
3598.0,1.28
3600.0,1.95
3602.0,2.13
3604.0,1.93
3606.0,1.55
3608.0,1.33
3610.0,1.26
3612.0,1.32
3614.0,1.29
3616.0,1.42
3618.0,1.44
3620.0,1.57
3622.0,1.51
3624.0,1.07
3625.0,0.93
3628.0,1.15
3630.0,1.31
3632.0,1.42
3634.0,1.08
3636.0,1.3
3638.0,1.58
3640.0,1.51
3642.0,1.01
3644.0,0.79
3646.0,0.95
3648.0,0.96
3650.0,1.1
3652.0,1.13
3654.0,1.08
3656.0,0.92
3658.0,0.82
3660.0,0.95
3662.0,1.02
3664.0,0.82
3666.0,0.77
3668.0,0.0
3670.0,0.16
3672.0,0.58
3674.0,0.58
3676.0,0.18
3678.0,0.0
3680.0,0.08
3682.0,0.42
3684.0,0.72
3686.0,0.6
3688.0,0.5
3690.0,0.35
3692.0,0.21
3694.0,0.37
3696.0,0.08
3698.0,0.0
3700.0,0.0
3702.0,0.0
3704.0,0.0
3706.0,0.0
3708.0,0.0
3710.0,0.03
3713.0,0.1
3714.0,0.55
3716.0,0.0
3718.0,0.0
3720.0,0.0
3722.0,0.0
3724.0,0.0
3726.0,0.0
3728.0,0.0
3730.0,0.05
3732.0,0.41
3734.0,0.52
3736.0,0.26
3738.0,0.14
3740.0,0.08
3742.0,0.7
3744.0,0.47
3746.0,0.32
3748.0,0.3
3750.0,0.31
3752.0,0.0
3755.0,0.1
3756.0,0.0
3758.0,0.0
3760.0,0.34
3762.0,0.6
3764.0,0.68
3766.0,0.62
3768.0,0.38
3770.0,0.31
3772.0,0.62
3774.0,0.8
3776.0,1.12
3778.0,1.04
3780.0,0.85
3782.0,1.55
3784.0,1.83
3786.0,0.91
3788.0,1.37
3790.0,1.66
3792.0,1.66
3794.0,1.74
3796.0,1.66
3799.0,1.55
3800.0,1.92
3802.0,1.95
3804.0,1.67
3806.0,1.83
3808.0,2.02
3810.0,1.69
3812.0,1.7
3814.0,1.96
3816.0,2.0
3818.0,1.61
3820.0,1.89
3822.0,1.21
3824.0,0.76
3826.0,1.04
3828.0,1.48
3830.0,1.74
3832.0,2.06
3834.0,2.1
3836.0,1.79
3838.0,1.69
3841.0,1.65
3842.0,1.96
3844.0,2.39
3846.0,2.72
3848.0,2.55
3850.0,2.78
3852.0,2.62
3854.0,2.98
3856.0,2.9
3858.0,2.29
3860.0,2.33
3862.0,2.25
3864.0,1.72
3866.0,1.53
3868.0,1.7
3870.0,1.99
3872.0,2.3
3874.0,2.24
3876.0,1.87
3878.0,1.59
3880.0,1.65
3883.0,1.85
3885.0,1.72
3886.0,1.57
3888.0,1.45
3890.0,1.73
3892.0,2.19
3894.0,2.45
3896.0,2.33
3898.0,2.45
3900.0,2.75
3902.0,3.15
3904.0,3.01
3906.0,2.66
3908.0,2.5
3910.0,2.56
3912.0,2.67
3914.0,2.93
3916.0,2.51
3918.0,2.06
3920.0,2.01
3922.0,2.09
3924.0,1.8
3927.0,1.72
3928.0,1.86
3930.0,2.22
3932.0,2.5
3934.0,2.57
3936.0,2.04
3938.0,1.81
3940.0,1.91
3942.0,1.82
3944.0,1.7
3946.0,1.57
3948.0,1.87
3950.0,1.75
3952.0,2.07
3954.0,2.29
3956.0,1.65
3958.0,1.51
3960.0,1.71
3962.0,1.94
3964.0,1.74
3966.0,1.67
3969.0,1.98
3971.0,1.89
3972.0,1.71
3974.0,1.85
3976.0,2.25
3978.0,1.84
3980.0,1.82
3982.0,1.93
3984.0,1.91
3986.0,1.37
3988.0,1.35
3990.0,1.73
3992.0,1.84
3994.0,2.12
3996.0,2.13
3998.0,2.23
4000.0,2.53
4002.0,2.47
4004.0,2.31
4006.0,2.22
4008.0,1.94
4011.0,2.57
4013.0,2.62
4014.0,2.5
4016.0,2.23
4018.0,1.6
4020.0,1.74
4022.0,2.21
4024.0,2.2
4026.0,1.85
4028.0,1.94
4030.0,2.04
4032.0,2.21
4034.0,2.25
4036.0,2.03
4038.0,2.03
4040.0,2.07
4042.0,1.81
4044.0,1.59
4046.0,1.38
4048.0,1.34
4050.0,1.54
4052.0,1.91
4055.0,1.78
4057.0,1.4
4058.0,1.31
4060.0,1.63
4062.0,1.3
4064.0,1.03
4066.0,1.27
4068.0,0.94
4070.0,1.46
4072.0,1.61
4074.0,1.65
4076.0,1.49
4078.0,1.17
4080.0,1.2
4082.0,1.55
4084.0,1.4
4086.0,0.59
4088.0,0.84
4090.0,1.54
4092.0,1.62
4094.0,1.45
4097.0,1.07
4099.0,0.97
4100.0,1.26
4102.0,1.2
4104.0,1.08
4106.0,0.93
4108.0,0.77
4110.0,1.26
4112.0,1.38
4114.0,1.43
4116.0,1.38
4118.0,1.18
4120.0,1.49
4122.0,1.45
4124.0,1.31
4126.0,1.06
4128.0,1.32
4130.0,1.76
4132.0,1.82
4134.0,1.84
4136.0,1.55
4139.0,1.41
4141.0,1.73
4143.0,1.59
4144.0,1.46
4146.0,1.24
4148.0,1.63
4150.0,1.86
4152.0,1.91
4154.0,1.75
4156.0,1.38
4158.0,1.13
4160.0,1.22
4162.0,1.04
4164.0,1.35
4166.0,1.16
4168.0,0.89
4170.0,1.61
4172.0,1.59
4174.0,1.28
4176.0,1.18
4178.0,1.22
4180.0,1.54
4183.0,1.69
4185.0,1.65
4187.0,1.12
4188.0,1.28
4190.0,1.67
4192.0,1.62
4194.0,1.55
4196.0,1.9
4198.0,1.71
4200.0,1.71
4202.0,1.87
4204.0,1.26
4206.0,1.19
4208.0,1.52
4210.0,1.79
4212.0,2.05
4214.0,1.93
4216.0,1.8
4218.0,1.71
4220.0,1.89
4222.0,1.8
4225.0,1.82
4227.0,1.88
4229.0,1.88
4230.0,2.01
4232.0,2.19
4234.0,2.22
4236.0,2.1
4238.0,1.94
4240.0,2.12
4242.0,2.05
4244.0,2.04
4246.0,2.13
4248.0,1.94
4250.0,2.2
4252.0,2.31
4254.0,2.15
4256.0,1.9
4258.0,1.75
4260.0,2.05
4262.0,2.24
4264.0,1.98
4267.0,1.89
4269.0,1.87
4271.0,2.02
4273.0,2.06
4274.0,1.99
4276.0,1.68
4278.0,1.75
4280.0,1.83
4282.0,1.98
4284.0,1.63
4286.0,1.29
4288.0,1.39
4290.0,1.75
4292.0,1.84
4294.0,1.81
4296.0,1.65
4298.0,1.68
4300.0,1.88
4302.0,1.85
4304.0,1.59
4306.0,1.54
4308.0,1.42
4311.0,1.76
4313.0,1.79
4315.0,1.73
4316.0,1.68
4318.0,1.54
4320.0,1.85
4322.0,1.52
4324.0,1.37
4326.0,1.35
4328.0,1.54
4330.0,1.94
4332.0,1.99
4334.0,1.78
4336.0,1.59
4338.0,1.45
4340.0,1.61
4342.0,1.63
4344.0,1.54
4346.0,1.82
4348.0,1.88
4350.0,2.08
4353.0,2.19
4355.0,2.01
4357.0,1.67
4359.0,1.51
4360.0,1.83
4362.0,1.77
4364.0,1.79
4366.0,1.52
4368.0,1.5
4370.0,1.84
4372.0,1.78
4374.0,1.79
4376.0,1.81
4378.0,1.59
4380.0,1.88
4382.0,2.0
4384.0,1.69
4386.0,1.43
4388.0,1.55
4390.0,1.83
4392.0,1.65
4395.0,1.64
4397.0,1.38
4399.0,1.49
4401.0,1.55
4403.0,1.47
4404.0,1.4
4406.0,1.17
4408.0,1.3
4410.0,1.65
4412.0,1.57
4414.0,1.54
4416.0,1.41
4418.0,1.29
4420.0,1.58
4422.0,1.5
4424.0,1.25
4426.0,1.1
4428.0,1.45
4430.0,1.7
4432.0,1.49
4434.0,1.43
4436.0,1.08
4439.0,1.09
4441.0,0.9
4443.0,1.07
4445.0,0.95
4447.0,0.85
4448.0,1.05
4450.0,1.44
4452.0,1.56
4454.0,1.42
4456.0,1.01
4458.0,0.99
4460.0,1.31
4462.0,1.51
4464.0,1.24
4466.0,1.32
4468.0,1.08
4470.0,1.3
4472.0,1.35
4474.0,1.53
4476.0,1.31
4478.0,1.25
4481.0,1.33
4483.0,1.37
4485.0,1.47
4487.0,1.4
4489.0,1.35
4491.0,1.62
4492.0,1.58
4494.0,1.42
4496.0,1.44
4498.0,1.55
4500.0,1.6
4502.0,1.51
4504.0,1.39
4506.0,1.21
4508.0,1.21
4510.0,1.4
4512.0,1.31
4514.0,1.39
4516.0,1.5
4518.0,1.49
4520.0,1.61
4523.0,1.41
4525.0,1.36
4527.0,1.21
4529.0,1.2
4531.0,1.31
4533.0,1.23
4534.0,1.2
4536.0,1.31
4538.0,0.97
4540.0,1.25
4542.0,1.38
4544.0,1.4
4546.0,1.46
4548.0,1.63
4550.0,1.77
4552.0,1.42
4554.0,0.94
4556.0,1.18
4558.0,1.18
4560.0,1.15
4562.0,0.92
4564.0,1.37
4567.0,1.25
4569.0,0.81
4571.0,1.03
4573.0,0.88
4575.0,0.75
4577.0,0.55
4578.0,0.35
4580.0,0.57
4582.0,0.2
4584.0,0.36
4586.0,0.75
4588.0,0.74
4590.0,0.84
4592.0,0.85
4594.0,0.9
4596.0,0.89
4598.0,0.8
4600.0,1.01
4602.0,1.04
4604.0,0.7
4606.0,0.46
4609.0,0.28
4611.0,0.59
4613.0,0.91
4615.0,0.89
4617.0,0.35
4619.0,0.15
4620.0,0.75
4622.0,0.67
4624.0,0.33
4626.0,0.38
4628.0,0.69
4630.0,0.95
4632.0,0.91
4634.0,0.78
4636.0,0.93
4638.0,1.2
4640.0,0.84
4642.0,0.5
4644.0,0.82
4646.0,1.36
4648.0,1.21
4651.0,1.35
4653.0,1.45
4655.0,1.25
4657.0,1.06
4659.0,1.19
4661.0,1.08
4663.0,0.96
4664.0,1.06
4666.0,0.93
4668.0,1.35
4670.0,0.65
4672.0,0.99
4674.0,1.48
4676.0,1.08
4678.0,0.74
4680.0,0.69
4682.0,0.5
4684.0,0.44
4686.0,0.34
4688.0,0.56
4690.0,0.58
4692.0,0.87
4695.0,0.56
4697.0,0.28
4699.0,0.63
4701.0,1.2
4703.0,1.07
4705.0,0.04
4707.0,0.33
4708.0,0.93
4710.0,0.84
4712.0,0.76
4714.0,0.36
4716.0,0.33
4718.0,0.07
4720.0,0.14
4722.0,0.05
4724.0,0.3
4726.0,0.61
4728.0,1.17
4730.0,1.36
4732.0,1.58
4734.0,1.64
4737.0,1.54
4739.0,0.98
4741.0,0.92
4743.0,0.86
4745.0,1.12
4747.0,1.4
4749.0,1.61
4751.0,1.87
4752.0,1.69
4754.0,1.61
4756.0,1.44
4758.0,1.19
4760.0,1.35
4762.0,1.15
4764.0,1.06
4766.0,0.96
4768.0,1.31
4770.0,1.44
4772.0,1.28
4774.0,1.27
4776.0,0.96
4779.0,0.55
4781.0,0.91
4783.0,1.0
4785.0,0.79
4787.0,1.26
4789.0,1.47
4791.0,1.62
4793.0,1.31
4794.0,1.05
4796.0,1.42
4798.0,1.6
4800.0,1.32
4802.0,1.22
4804.0,1.21
4806.0,1.62
4808.0,1.91
4810.0,2.0
4812.0,2.09
4814.0,2.09
4816.0,2.3
4818.0,2.18
4820.0,2.44
4823.0,2.27
4825.0,2.55
4827.0,3.14
4829.0,3.3
4831.0,3.3
4833.0,3.3
4835.0,3.3
4837.0,3.3
4838.0,3.12
4840.0,3.3
4842.0,3.3
4844.0,3.13
4846.0,3.18
4848.0,3.3
4850.0,3.07
4852.0,2.93
4854.0,2.65
4856.0,2.08
4858.0,1.55
4860.0,1.77
4862.0,1.79
4865.0,1.45
4867.0,1.98
4869.0,2.3
4871.0,2.53
4873.0,2.39
4875.0,2.07
4877.0,2.04
4879.0,1.73
4880.0,2.3
4882.0,1.86
4884.0,1.49
4886.0,1.85
4888.0,2.33
4890.0,2.34
4892.0,2.3
4894.0,2.03
4896.0,2.38
4898.0,2.38
4900.0,2.62
4902.0,2.45
4904.0,2.23
4907.0,2.29
4909.0,2.6
4911.0,2.72
4913.0,3.0
4915.0,2.9
4917.0,2.82
4919.0,2.56
4921.0,2.96
4923.0,2.71
4924.0,2.4
4926.0,2.66
4928.0,3.17
4930.0,3.22
4932.0,3.25
4934.0,2.9
4936.0,2.57
4938.0,2.33
4940.0,2.56
4942.0,2.81
4944.0,2.11
4946.0,2.45
4948.0,2.67
4951.0,2.67
4953.0,2.62
4955.0,2.35
4957.0,1.74
4959.0,1.68
4961.0,2.25
4963.0,2.36
4965.0,2.25
4967.0,2.32
4968.0,2.16
4970.0,1.9
4972.0,1.87
4974.0,1.58
4976.0,1.48
4978.0,1.46
4980.0,1.72
4982.0,2.33
4984.0,1.95
4986.0,1.77
4988.0,2.02
4990.0,2.16
4993.0,2.12
4995.0,1.85
4997.0,1.69
4999.0,1.93
5001.0,2.25
5003.0,1.98
5005.0,1.9
5007.0,1.81
5009.0,2.15
5011.0,2.05
5012.0,1.97
5014.0,1.99
5016.0,1.79
5018.0,1.52
5020.0,1.79
5022.0,1.86
5024.0,1.37
5026.0,1.52
5028.0,1.65
5030.0,1.78
5032.0,2.21
5035.0,1.87
5037.0,1.29
5039.0,0.95
5041.0,1.34
5043.0,1.7
5045.0,2.12
5047.0,1.82
5049.0,1.93
5051.0,1.7
5053.0,1.67
5054.0,1.56
5056.0,1.33
5058.0,1.05
5060.0,1.26
5062.0,0.34
5064.0,0.85
5066.0,1.51
5068.0,1.52
5070.0,1.62
5072.0,1.56
5074.0,1.04
5076.0,1.1
5079.0,1.1
5081.0,1.15
5083.0,1.03
5085.0,0.74
5087.0,0.57
5089.0,0.93
5091.0,0.9
5093.0,0.69
5095.0,0.93
5097.0,1.1
5098.0,1.12
5100.0,0.82
5102.0,0.48
5104.0,0.7
5106.0,0.89
5108.0,1.1
5110.0,1.2
5112.0,1.19
5114.0,0.92
5116.0,0.74
5118.0,0.69
5121.0,1.0
5123.0,0.71
5125.0,0.71
5127.0,0.74
5129.0,1.14
5131.0,1.23
5133.0,1.23
5135.0,1.11
5137.0,0.96
5139.0,0.84
5141.0,0.67
5142.0,0.77
5144.0,1.02
5146.0,1.33
5148.0,1.69
5150.0,1.82
5152.0,1.72
5154.0,1.53
5156.0,1.52
5158.0,1.44
5160.0,1.5
5163.0,1.59
5165.0,1.48
5167.0,1.46
5169.0,1.81
5171.0,1.89
5173.0,1.84
5175.0,1.52
5177.0,1.29
5179.0,1.57
5181.0,1.81
5183.0,1.96
5185.0,1.58
5186.0,1.65
5188.0,1.93
5190.0,1.96
5192.0,1.81
5194.0,1.7
5196.0,1.31
5198.0,1.37
5200.0,1.56
5202.0,1.43
5204.0,1.14
5207.0,1.16
5209.0,1.51
5211.0,1.55
5213.0,1.63
5215.0,1.53
5217.0,1.28
5219.0,1.39
5221.0,1.48
5223.0,1.34
5225.0,1.0
5227.0,1.22
5228.0,1.61
5230.0,1.75
5232.0,1.59
5234.0,1.24
5236.0,1.11
5238.0,1.31
5240.0,1.29
5242.0,1.05
5244.0,0.99
5246.0,1.07
5249.0,1.45
5251.0,1.53
5253.0,1.4
5255.0,1.13
5257.0,1.29
5259.0,1.17
5261.0,1.45
5263.0,1.24
5265.0,1.37
5267.0,1.33
5269.0,1.54
5271.0,1.57
5272.0,1.51
5274.0,1.22
5276.0,1.02
5278.0,1.34
5280.0,1.73
5282.0,1.38
5284.0,1.02
5286.0,1.22
5288.0,1.78
5291.0,1.73
5293.0,1.55
5295.0,1.33
5297.0,1.53
5299.0,1.51
5301.0,1.56
5303.0,1.27
5305.0,1.18
5307.0,1.13
5309.0,1.41
5311.0,1.39
5313.0,1.37
5315.0,1.3
5316.0,1.24
5318.0,1.3
5320.0,1.44
5322.0,1.49
5324.0,1.54
5326.0,1.33
5328.0,1.57
5330.0,1.72
5332.0,1.77
5335.0,1.5
5337.0,1.2
5339.0,1.34
5341.0,1.43
5343.0,1.44
5345.0,1.58
5347.0,1.87
5349.0,1.99
5351.0,2.0
5353.0,1.87
5355.0,1.48
5357.0,1.35
5358.0,1.43
5360.0,1.43
5362.0,1.85
5364.0,1.78
5366.0,1.55
5368.0,1.84
5370.0,1.9
5372.0,1.88
5374.0,1.62
5377.0,1.56
5379.0,1.6
5381.0,1.77
5383.0,1.43
5385.0,1.39
5387.0,1.84
5389.0,2.26
5391.0,2.07
5393.0,1.94
5395.0,1.74
5397.0,1.48
5399.0,1.48
5401.0,1.67
5402.0,1.66
5404.0,1.78
5406.0,1.75
5408.0,2.04
5410.0,2.01
5412.0,1.98
5414.0,1.7
5416.0,1.37
5419.0,1.44
5421.0,1.55
5423.0,1.45
5425.0,1.3
5427.0,1.42
5429.0,2.07
5431.0,2.09
5433.0,1.89
5435.0,1.69
5437.0,1.34
5439.0,1.05
5441.0,1.72
5443.0,1.55
5445.0,1.34
5446.0,1.5
5448.0,1.86
5450.0,1.72
5452.0,1.57
5454.0,1.53
5456.0,1.12
5458.0,1.24
5460.0,1.51
5463.0,1.05
5465.0,1.49
5467.0,1.3
5469.0,1.75
5471.0,1.95
5473.0,1.92
5475.0,1.79
5477.0,1.47
5479.0,1.77
5481.0,1.82
5483.0,1.58
5485.0,1.49
5487.0,1.41
5488.0,1.75
5490.0,1.87
5492.0,1.64
5494.0,1.43
5496.0,1.42
5498.0,1.74
5500.0,1.64
5502.0,1.33
5505.0,1.15
5507.0,1.19
5509.0,1.75
5511.0,1.64
5513.0,1.76
5515.0,1.83
5517.0,1.12
5519.0,1.66
5521.0,1.7
5523.0,1.25
5525.0,1.4
5527.0,1.86
5529.0,1.91
5531.0,1.94
5532.0,1.9
5534.0,1.76
5536.0,1.48
5538.0,1.71
5540.0,1.58
5542.0,1.78
5544.0,1.45
5547.0,1.57
5549.0,2.1
5551.0,2.21
5553.0,1.51
5555.0,1.33
5557.0,1.16
5559.0,0.94
5561.0,1.63
5563.0,1.65
5565.0,1.51
5567.0,1.56
5569.0,1.6
5571.0,2.33
5573.0,2.71
5575.0,2.03
5576.0,1.0
5578.0,1.08
5580.0,2.74
5582.0,3.27
5584.0,3.17
5586.0,2.64
5588.0,2.67
5591.0,2.24
5593.0,2.86
5595.0,2.98
5597.0,3.11
5599.0,3.16
5601.0,2.82
5603.0,2.85
5605.0,2.92
5607.0,2.72
5609.0,2.64
5611.0,2.94
5613.0,3.04
5615.0,2.43
5617.0,2.47
5619.0,2.47
5620.0,3.3
5622.0,2.71
5624.0,2.11
5626.0,2.55
5628.0,2.89
5630.0,2.79
5633.0,2.48
5635.0,2.05
5637.0,1.44
5639.0,1.58
5641.0,1.6
5643.0,1.64
5645.0,2.43
5647.0,1.7
5649.0,0.94
5651.0,2.98
5653.0,3.29
5655.0,2.31
5657.0,2.04
5659.0,2.19
5661.0,2.16
5662.0,1.9
5664.0,2.08
5666.0,1.81
5668.0,0.97
5670.0,1.01
5672.0,0.62
5675.0,0.23
5677.0,0.65
5679.0,1.27
5681.0,1.5
5683.0,1.32
5685.0,0.67
5687.0,0.85
5689.0,1.09
5691.0,0.52
5693.0,0.63
5695.0,1.07
5697.0,0.94
5699.0,1.13
5701.0,1.17
5703.0,0.48
5705.0,0.07
5706.0,0.17
5708.0,0.05
5710.0,0.41
5712.0,0.56
5714.0,0.0
5716.0,0.0
5719.0,0.04
5721.0,0.24
5723.0,0.13
5725.0,0.12
5727.0,0.59
5729.0,0.87
5731.0,0.78
5733.0,0.52
5735.0,0.19
5737.0,0.47
5739.0,0.8
5741.0,0.5
5743.0,0.45
5745.0,0.32
5747.0,0.56
5749.0,0.26
5750.0,0.0
5752.0,0.26
5754.0,0.0
5756.0,0.02
5758.0,0.54
5761.0,0.78
5763.0,0.47
5765.0,0.46
5767.0,0.29
5769.0,0.4
5771.0,0.21
5773.0,0.0
5775.0,0.02
5777.0,0.08
5779.0,0.07
5781.0,0.01
5783.0,0.0
5785.0,0.0
5787.0,0.0
5789.0,0.0
5791.0,0.0
5792.0,0.0
5794.0,0.0
5796.0,0.0
5798.0,0.03
5800.0,0.0
5803.0,0.0
5805.0,0.0
5807.0,0.0
5809.0,0.29
5811.0,0.57
5813.0,0.38
5815.0,0.25
5817.0,0.03
5819.0,0.0
5821.0,0.0
5823.0,0.36
5825.0,0.5
5827.0,0.26
5829.0,0.65
5831.0,1.02
5833.0,1.13
5835.0,0.9
5836.0,0.8
5838.0,0.47
5840.0,1.1
5842.0,1.07
5844.0,0.66
5847.0,1.23
5849.0,1.53
5851.0,1.68
5853.0,1.59
5855.0,1.39
5857.0,1.2
5859.0,1.3
5861.0,1.02
5863.0,0.86
5865.0,0.84
5867.0,0.99
5869.0,1.15
5871.0,1.38
5873.0,1.35
5875.0,1.13
5877.0,1.04
5878.0,1.23
5880.0,1.12
5882.0,0.69
5884.0,1.0
5886.0,1.85
5889.0,1.87
5891.0,1.87
5893.0,1.94
5895.0,1.59
5897.0,1.45
5899.0,1.67
5901.0,1.49
5903.0,1.42
5905.0,1.44
5907.0,1.87
5909.0,2.26
5911.0,2.05
5913.0,1.79
5915.0,2.15
5917.0,1.95
5919.0,2.24
5921.0,2.05
5922.0,1.88
5924.0,1.61
5926.0,2.01
5928.0,2.35
5931.0,2.38
5933.0,2.43
5935.0,2.11
5937.0,1.74
5939.0,2.43
5941.0,2.18
5943.0,1.93
5945.0,2.35
5947.0,2.11
5949.0,2.38
5951.0,2.68
5953.0,2.66
5955.0,2.75
5957.0,2.7
5959.0,2.59
5961.0,2.42
5963.0,2.23
5965.0,2.12
5966.0,2.16
5968.0,2.22
5970.0,2.27
5972.0,2.06
5975.0,1.54
5977.0,1.24
5979.0,1.91
5981.0,1.95
5983.0,1.73
5985.0,1.75
5987.0,1.61
5989.0,1.85
5991.0,1.98
5993.0,1.7
5995.0,1.95
5997.0,3.3
5999.0,3.3
6001.0,3.3
6003.0,3.3
6005.0,3.02
6007.0,3.27
6008.0,3.3
6010.0,3.29
6012.0,2.98
6014.0,2.59
6017.0,2.2
6019.0,2.54
6021.0,3.02
6023.0,2.96
6025.0,2.63
6027.0,2.08
6029.0,2.47
6031.0,2.58
6033.0,2.31
6035.0,1.7
6037.0,1.62
6039.0,2.22
6041.0,2.13
6043.0,1.86
6045.0,1.73
6047.0,1.96
6049.0,2.09
6051.0,1.92
6052.0,1.89
6054.0,1.48
6056.0,1.73
6059.0,1.69
6061.0,1.82
6063.0,2.05
6065.0,2.23
6067.0,1.94
6069.0,1.74
6071.0,1.65
6073.0,1.25
6075.0,1.07
6077.0,0.94
6079.0,1.13
6081.0,0.84
6083.0,1.05
6085.0,1.09
6087.0,0.67
6089.0,0.9
6091.0,0.65
6093.0,0.52
6095.0,0.09
6096.0,0.03
6098.0,0.47
6100.0,0.53
6103.0,0.35
6105.0,0.17
6107.0,0.19
6109.0,0.3
6111.0,0.31
6113.0,0.0
6115.0,0.05
6117.0,0.0
6119.0,0.03
6121.0,0.14
6123.0,0.32
6125.0,0.4
6127.0,0.25
6129.0,0.34
6131.0,0.43
6133.0,0.81
6135.0,0.08
6137.0,0.22
6139.0,0.88
6140.0,1.2
6142.0,0.9
6145.0,0.9
6147.0,1.08
6149.0,1.25
6151.0,1.45
6153.0,1.14
6155.0,1.02
6157.0,0.37
6159.0,0.0
6161.0,0.47
6163.0,0.56
6165.0,0.28
6167.0,0.53
6169.0,1.03
6171.0,0.98
6173.0,0.84
6175.0,0.59
6177.0,0.48
6179.0,0.89
6181.0,0.94
6183.0,0.97
6184.0,1.06
6187.0,1.08
6189.0,1.41
6191.0,1.45
6193.0,1.34
6195.0,1.3
6197.0,1.38
6199.0,1.65
6201.0,1.42
6203.0,1.33
6205.0,1.19
6207.0,1.48
6209.0,1.74
6211.0,1.95
6213.0,2.0
6215.0,1.78
6217.0,1.82
6219.0,2.01
6221.0,1.83
6223.0,1.84
6225.0,1.79
6227.0,1.63
6228.0,2.09
6231.0,2.15
6233.0,1.65
6235.0,1.49
6237.0,1.55
6239.0,1.52
6241.0,1.22
6243.0,1.25
6245.0,1.7
6247.0,1.9
6249.0,1.88
6251.0,1.79
6253.0,1.37
6255.0,1.12
6257.0,1.43
6259.0,1.85
6261.0,1.75
6263.0,1.76
6265.0,1.69
6267.0,1.79
6269.0,1.74
6270.0,1.81
6273.0,2.06
6275.0,2.12
6277.0,2.15
6279.0,2.24
6281.0,2.11
6283.0,1.69
6285.0,1.55
6287.0,1.83
6289.0,2.07
6291.0,2.13
6293.0,2.26
6295.0,2.39
6297.0,2.64
6299.0,2.83
6301.0,2.19
6303.0,2.15
6305.0,2.37
6307.0,2.35
6309.0,2.45
6311.0,2.42
6313.0,2.32
6315.0,2.05
6317.0,1.87
6319.0,1.75
6321.0,1.73
6323.0,1.65
6325.0,2.01
6327.0,2.08
6329.0,2.03
6331.0,1.72
6333.0,1.63
6335.0,1.77
6337.0,1.82
6339.0,1.92
6341.0,1.59
6343.0,1.5
6345.0,1.56
6347.0,1.77
6349.0,2.03
6351.0,2.01
6353.0,1.62
6355.0,1.39
6358.0,1.53
6359.0,1.85
6361.0,1.77
6363.0,1.58
6365.0,1.46
6367.0,1.26
6369.0,1.44
6371.0,1.29
6373.0,0.95
6375.0,0.76
6377.0,1.07
6379.0,1.68
6381.0,1.28
6383.0,0.99
6385.0,0.95
6387.0,0.85
6389.0,1.07
6391.0,1.4
6393.0,1.12
6395.0,0.71
6397.0,0.64
6400.0,0.96
6402.0,0.99
6403.0,0.78
6405.0,0.65
6407.0,0.8
6409.0,0.86
6411.0,0.65
6413.0,0.6
6415.0,0.71
6417.0,0.65
6419.0,0.88
6421.0,0.54
6423.0,0.55
6425.0,0.76
6427.0,1.09
6429.0,1.26
6431.0,1.23
6433.0,0.95
6435.0,0.58
6437.0,0.45
6439.0,0.96
6441.0,1.33
6444.0,1.1
6445.0,0.96
6447.0,1.23
6449.0,1.31
6451.0,1.15
6453.0,0.68
6455.0,0.73
6457.0,0.72
6459.0,0.78
6461.0,0.35
6463.0,0.22
6465.0,0.52
6467.0,1.05
6469.0,0.95
6471.0,0.92
6473.0,0.8
6475.0,0.68
6477.0,0.57
6479.0,0.58
6481.0,0.52
6483.0,0.23
6486.0,0.15
6488.0,0.69
6489.0,0.6
6491.0,0.8
6493.0,0.43
6495.0,0.18
6497.0,0.89
6499.0,1.05
6501.0,0.8
6503.0,1.02
6505.0,1.07
6507.0,1.26
6509.0,0.96
6511.0,0.72
6513.0,0.8
6515.0,0.55
6517.0,0.58
6519.0,0.79
6521.0,0.67
6523.0,0.47
6525.0,0.7
6528.0,0.93
6530.0,0.91
6531.0,0.84
6533.0,0.59
6535.0,0.54
6537.0,0.82
6539.0,1.0
6541.0,0.83
6543.0,1.01
6545.0,1.36
6547.0,1.58
6549.0,1.43
6551.0,1.27
6553.0,1.4
6555.0,1.42
6557.0,0.99
6559.0,0.78
6561.0,1.58
6563.0,1.59
6565.0,1.25
6567.0,1.45
6569.0,1.66
6572.0,1.9
6574.0,1.63
6575.0,1.44
6577.0,1.14
6579.0,1.38
6581.0,1.28
6583.0,1.22
6585.0,1.75
6587.0,1.98
6589.0,1.87
6591.0,1.69
6593.0,1.32
6595.0,1.75
6597.0,1.92
6599.0,1.82
6601.0,1.5
6603.0,0.88
6605.0,1.35
6607.0,2.04
6609.0,1.84
6611.0,1.61
6614.0,1.82
6616.0,1.77
6617.0,1.48
6619.0,1.65
6621.0,1.5
6623.0,1.37
6625.0,1.54
6627.0,1.68
6629.0,1.79
6631.0,1.76
6633.0,1.64
6635.0,1.63
6637.0,1.32
6639.0,1.62
6641.0,0.88
6643.0,1.36
6645.0,1.56
6647.0,1.74
6649.0,1.64
6651.0,1.34
6653.0,1.07
6656.0,1.42
6658.0,1.6
6660.0,1.7
6661.0,1.52
6663.0,1.49
6665.0,1.41
6667.0,1.27
6669.0,1.27
6671.0,1.12
6673.0,0.79
6675.0,1.12
6677.0,1.08
6679.0,0.99
6681.0,1.14
6683.0,0.86
6685.0,0.74
6687.0,1.28
6689.0,1.26
6691.0,1.35
6693.0,1.41
6695.0,1.62
6697.0,1.45
6700.0,1.31
6702.0,1.02
6703.0,0.91
6705.0,1.54
6707.0,1.97
6709.0,1.89
6711.0,1.49
6713.0,1.41
6715.0,1.35
6717.0,1.35
6719.0,1.35
6721.0,1.09
6723.0,1.37
6725.0,1.39
6727.0,1.24
6729.0,1.58
6731.0,1.48
6733.0,0.91
6735.0,1.6
6737.0,1.43
6739.0,1.38
6742.0,1.18
6744.0,1.87
6746.0,1.84
6747.0,1.37
6749.0,1.81
6751.0,2.68
6753.0,2.37
6755.0,2.42
6757.0,2.39
6759.0,2.48
6761.0,2.6
6763.0,2.36
6765.0,2.62
6767.0,3.05
6769.0,2.94
6771.0,2.89
6773.0,2.63
6775.0,2.52
6777.0,2.67
6779.0,3.3
6781.0,3.12
6784.0,2.81
6786.0,2.69
6788.0,2.88
6790.0,2.65
6791.0,2.16
6793.0,2.13
6795.0,1.98
6797.0,2.13
6799.0,2.51
6801.0,2.07
6803.0,1.99
6805.0,2.32
6807.0,2.45
6809.0,2.82
6811.0,2.87
6813.0,2.59
6815.0,3.04
6817.0,2.4
6819.0,2.42
6821.0,2.32
6823.0,2.19
6825.0,2.59
6828.0,2.95
6830.0,3.3
6832.0,3.07
6833.0,2.61
6835.0,2.45
6837.0,2.37
6839.0,2.54
6841.0,2.4
6843.0,2.55
6845.0,2.79
6847.0,2.98
6849.0,2.86
6851.0,2.76
6853.0,2.44
6855.0,2.45
6857.0,2.85
6859.0,3.25
6861.0,3.29
6863.0,3.18
6865.0,3.09
6867.0,3.28
6870.0,3.03
6872.0,2.9
6874.0,2.52
6875.0,1.94
6877.0,2.66
6879.0,3.03
6881.0,2.78
6883.0,2.22
6885.0,2.02
6887.0,2.03
6889.0,1.99
6891.0,1.8
6893.0,1.72
6895.0,1.35
6897.0,1.41
6899.0,1.22
6901.0,1.14
6903.0,1.38
6905.0,1.64
6907.0,1.74
6909.0,1.53
6912.0,1.66
6914.0,1.47
6916.0,0.97
6918.0,1.7
6919.0,1.8
6921.0,1.37
6923.0,1.12
6925.0,1.41
6927.0,1.38
6929.0,1.59
6931.0,1.13
6933.0,0.94
6935.0,0.8
6937.0,0.81
6939.0,1.11
6941.0,1.22
6943.0,1.24
6945.0,1.62
6947.0,1.66
6949.0,1.76
6951.0,1.35
6953.0,1.16
6956.0,1.15
6958.0,1.28
6960.0,1.15
6961.0,0.78
6963.0,0.95
6965.0,0.91
6967.0,1.11
6969.0,1.06
6971.0,1.0
6973.0,0.85
6975.0,0.44
6977.0,0.73
6979.0,0.74
6981.0,0.61
6983.0,0.56
6985.0,0.53
6987.0,0.95
6989.0,1.19
6991.0,1.15
6993.0,0.84
6995.0,0.65
6998.0,1.1
7000.0,1.16
7002.0,0.65
7004.0,0.73
7005.0,1.26
7007.0,1.47
7009.0,1.32
7011.0,1.36
7013.0,1.47
7015.0,1.12
7017.0,1.02
7019.0,1.06
7021.0,0.67
7023.0,0.68
7025.0,0.75
7027.0,1.43
7029.0,1.57
7031.0,1.22
7033.0,1.13
7035.0,0.71
7037.0,0.69
7040.0,0.49
7042.0,0.62
7044.0,1.04
7046.0,1.19
7048.0,1.23
7049.0,1.16
7051.0,0.95
7053.0,0.86
7055.0,0.4
7057.0,0.52
7059.0,0.4
7061.0,0.42
7063.0,0.55
7065.0,0.85
7067.0,1.22
7069.0,1.14
7071.0,0.75
7073.0,0.37
7075.0,0.36
7077.0,0.78
7079.0,0.62
7081.0,0.52
7084.0,0.32
7086.0,0.43
7088.0,0.72
7090.0,0.76
7092.0,0.6
7093.0,0.64
7095.0,0.56
7097.0,0.65
7099.0,0.6
7101.0,0.54
7103.0,0.37
7105.0,0.54
7107.0,1.1
7109.0,1.36
7111.0,1.52
7113.0,1.55
7115.0,1.28
7117.0,1.29
7119.0,1.19
7121.0,0.86
7123.0,1.29
7126.0,1.58
7128.0,1.5
7130.0,1.75
7132.0,1.51
7134.0,1.5
7135.0,1.2
7137.0,1.23
7139.0,1.64
7141.0,1.49
7143.0,1.49
7145.0,1.77
7147.0,2.14
7149.0,2.03
7151.0,1.94
7153.0,1.79
7155.0,1.37
7157.0,2.03
7159.0,2.44
7161.0,1.98
7163.0,1.78
7165.0,2.11
7168.0,2.21
7170.0,1.96
7172.0,1.83
7174.0,1.88
7176.0,1.65
7178.0,1.69
7179.0,1.7
7181.0,1.73
7183.0,2.27
7185.0,2.48
7187.0,2.45
7189.0,2.24
7191.0,2.05
7193.0,1.94
7195.0,1.86
7197.0,1.83
7199.0,1.74
7201.0,1.6
7203.0,1.45
7205.0,1.62
7207.0,1.84
7209.0,1.7
7212.0,1.26
7214.0,1.81
7216.0,2.03
7218.0,2.1
7220.0,1.88
7222.0,1.6
7223.0,1.74
7225.0,2.13
7227.0,2.25
7229.0,2.22
7231.0,2.04
7233.0,1.96
7235.0,1.75
7237.0,1.71
7239.0,1.88
7241.0,1.69
7243.0,1.52
7245.0,1.9
7247.0,2.04
7249.0,1.9
7251.0,1.49
7254.0,1.32
7256.0,1.21
7258.0,1.36
7260.0,1.23
7262.0,1.22
7264.0,1.18
7266.0,1.64
7267.0,1.91
7269.0,1.96
7271.0,1.62
7273.0,1.09
7275.0,0.74
7277.0,1.66
7279.0,1.8
7281.0,1.64
7283.0,1.15
7285.0,1.47
7287.0,1.68
7289.0,1.56
7291.0,1.33
7293.0,1.33
7296.0,1.35
7298.0,1.52
7300.0,1.25
7302.0,0.87
7304.0,0.87
7306.0,1.56
7308.0,1.7
7310.0,1.89
7311.0,2.16
7313.0,1.86
7315.0,1.53
7317.0,1.86
7319.0,1.87
7321.0,1.55
7323.0,1.45
7325.0,1.64
7327.0,1.76
7329.0,1.73
7331.0,1.89
7333.0,2.0
7335.0,1.58
7337.0,1.48
7340.0,1.01
7342.0,1.81
7344.0,2.02
7346.0,1.97
7348.0,1.97
7350.0,2.07
7352.0,1.74
7354.0,1.61
7355.0,1.39
7357.0,1.48
7359.0,1.58
7361.0,1.78
7363.0,1.92
7365.0,1.89
7367.0,1.99
7369.0,1.88
7371.0,1.75
7373.0,1.67
7375.0,1.7
7377.0,1.41
7379.0,1.2
7382.0,1.21
7384.0,1.39
7386.0,1.77
7388.0,2.05
7390.0,1.97
7392.0,1.63
7394.0,1.61
7396.0,1.58
7397.0,1.53
7399.0,1.37
7401.0,1.22
7403.0,1.03
7405.0,1.28
7407.0,1.5
7409.0,1.51
7411.0,0.95
7413.0,1.15
7415.0,1.17
7417.0,1.28
7419.0,1.29
7421.0,1.18
7424.0,1.15
7426.0,1.44
7428.0,1.55
7430.0,1.6
7432.0,1.42
7434.0,1.38
7436.0,1.11
7438.0,0.98
7440.0,1.07
7441.0,1.47
7443.0,1.47
7445.0,2.06
7447.0,2.52
7449.0,2.45
7451.0,2.21
7453.0,1.7
7455.0,1.96
7457.0,2.65
7459.0,2.31
7461.0,2.42
7463.0,2.45
7465.0,2.44
7468.0,2.58
7470.0,2.23
7472.0,2.07
7474.0,2.26
7476.0,2.01
7478.0,2.14
7480.0,2.15
7482.0,1.47
7484.0,1.27
7485.0,2.3
7487.0,2.52
7489.0,2.26
7491.0,2.11
7493.0,1.85
7495.0,1.62
7497.0,1.51
7499.0,1.28
7501.0,0.67
7503.0,1.15
7505.0,1.5
7507.0,1.49
7510.0,1.73
7512.0,1.62
7514.0,1.38
7516.0,1.19
7518.0,1.21
7520.0,0.55
7522.0,0.0
7524.0,0.24
7526.0,0.49
7528.0,0.52
7529.0,0.77
7531.0,0.41
7533.0,0.0
7535.0,0.0
7537.0,0.11
7539.0,0.29
7541.0,0.56
7543.0,0.73
7545.0,0.83
7547.0,0.7
7549.0,0.78
7552.0,0.67
7554.0,0.43
7556.0,0.3
7558.0,0.59
7560.0,0.51
7562.0,0.0
7564.0,0.21
7566.0,1.15
7568.0,1.04
7570.0,0.97
7572.0,0.76
7573.0,0.46
7575.0,0.49
7577.0,1.16
7579.0,0.94
7581.0,0.62
7583.0,0.73
7585.0,1.02
7587.0,0.77
7589.0,0.67
7591.0,1.15
7593.0,1.4
7596.0,1.36
7598.0,1.45
7600.0,1.32
7602.0,1.07
7604.0,1.41
7606.0,1.88
7608.0,1.97
7610.0,1.83
7612.0,1.69
7614.0,1.72
7616.0,1.53
7617.0,1.56
7619.0,1.51
7621.0,1.37
7623.0,1.31
7625.0,1.57
7627.0,1.46
7629.0,1.96
7631.0,1.77
7633.0,1.99
7635.0,1.95
7638.0,1.95
7640.0,1.86
7642.0,1.62
7644.0,1.58
7646.0,1.92
7648.0,1.58
7650.0,1.07
7652.0,2.24
7654.0,2.27
7656.0,1.72
7658.0,1.96
7660.0,1.8
7661.0,1.66
7663.0,1.5
7665.0,1.78
7667.0,1.45
7669.0,1.96
7671.0,2.15
7673.0,2.18
7675.0,1.62
7677.0,1.4
7680.0,1.92
7682.0,1.8
7684.0,2.06
7686.0,1.96
7688.0,1.93
7690.0,1.51
7692.0,1.23
7694.0,1.77
7696.0,1.76
7698.0,1.89
7700.0,1.53
7702.0,1.19
7704.0,1.07
7705.0,1.95
7707.0,1.98
7709.0,1.74
7711.0,1.45
7713.0,1.3
7715.0,1.05
7717.0,1.5
7719.0,1.41
7721.0,1.0
7724.0,1.25
7726.0,1.56
7728.0,1.35
7730.0,1.49
7732.0,1.49
7734.0,1.57
7736.0,1.73
7738.0,1.89
7740.0,1.79
7742.0,1.55
7744.0,1.91
7746.0,1.7
7747.0,1.81
7749.0,1.99
7751.0,1.68
7753.0,1.95
7755.0,2.06
7757.0,2.0
7759.0,1.94
7761.0,1.38
7763.0,1.79
7766.0,2.01
7768.0,1.82
7770.0,1.79
7772.0,1.46
7774.0,1.58
7776.0,1.69
7778.0,1.78
7780.0,1.48
7782.0,1.3
7784.0,1.51
7786.0,1.67
7788.0,1.74
7790.0,2.37
7791.0,2.29
7793.0,2.13
7795.0,1.72
7797.0,1.82
7799.0,1.92
7801.0,1.54
7803.0,1.45
7805.0,2.25
7808.0,2.93
7810.0,2.45
7812.0,2.2
7814.0,2.17
7816.0,1.73
7818.0,1.85
7820.0,1.61
7822.0,1.27
7824.0,1.32
7826.0,1.34
7828.0,1.2
7830.0,1.26
7832.0,1.02
7833.0,1.02
7835.0,0.75
7837.0,1.45
7839.0,1.43
7841.0,1.17
7843.0,1.3
7845.0,1.53
7847.0,1.51
7849.0,1.78
7852.0,1.8
7854.0,1.78
7856.0,1.51
7858.0,1.53
7860.0,1.63
7862.0,1.45
7864.0,1.42
7866.0,1.72
7868.0,1.69
7870.0,1.41
7872.0,1.35
7874.0,1.53
7876.0,1.43
7877.0,1.69
7879.0,1.29
7881.0,1.5
7883.0,1.68
7885.0,1.78
7887.0,1.83
7889.0,1.89
7891.0,1.68
7894.0,1.65
7896.0,2.03
7898.0,2.18
7900.0,2.13
7902.0,1.78
7904.0,1.49
7906.0,1.66
7908.0,2.08
7910.0,2.37
7912.0,2.03
7914.0,1.64
7916.0,1.73
7918.0,1.75
7920.0,1.62
7921.0,1.25
7923.0,1.54
7925.0,2.0
7927.0,1.9
7929.0,1.69
7931.0,1.51
7933.0,1.5
7936.0,1.31
7938.0,1.38
7940.0,0.91
7942.0,1.14
7944.0,1.42
7946.0,1.49
7948.0,1.33
7950.0,1.32
7952.0,1.21
7954.0,1.44
7956.0,1.23
7958.0,1.28
7960.0,1.49
7962.0,1.34
7963.0,1.32
7965.0,1.85
7967.0,1.76
7969.0,1.47
7971.0,1.31
7973.0,1.3
7975.0,1.29
7977.0,1.39
7980.0,1.18
7982.0,0.72
7984.0,0.71
7986.0,1.36
7988.0,2.03
7990.0,1.88
7992.0,1.59
7994.0,1.49
7996.0,1.04
7998.0,1.32
8000.0,1.74
8002.0,1.54
8004.0,1.4
8006.0,1.62
8007.0,1.64
8009.0,1.6
8011.0,1.48
8013.0,1.19
8015.0,1.16
8017.0,1.46
8019.0,1.12
8022.0,0.77
8024.0,0.73
8026.0,1.09
8028.0,1.29
8030.0,1.52
8032.0,1.12
8034.0,0.94
8036.0,0.91
8038.0,1.18
8040.0,1.17
8042.0,0.97
8044.0,1.14
8046.0,1.05
8048.0,0.89
8049.0,0.79
8051.0,1.08
8053.0,1.36
8055.0,0.94
8057.0,0.9
8059.0,1.27
8061.0,1.39
8064.0,1.51
8066.0,1.67
8068.0,1.55
8070.0,1.24
8072.0,1.29
8074.0,1.47
8076.0,1.32
8078.0,1.68
8080.0,1.58
8082.0,1.22
8084.0,1.39
8086.0,1.46
8088.0,1.37
8090.0,1.26
8092.0,1.21
8093.0,1.32
8095.0,1.47
8097.0,1.29
8099.0,1.03
8101.0,1.09
8103.0,1.4
8105.0,1.61
8108.0,1.75
8110.0,1.57
8112.0,1.66
8114.0,1.63
8116.0,1.58
8118.0,1.61
8120.0,1.35
8122.0,1.27
8124.0,1.79
8126.0,2.07
8128.0,1.94
8130.0,1.72
8132.0,1.65
8134.0,1.43
8135.0,1.23
8137.0,1.28
8139.0,1.26
8141.0,1.08
8143.0,1.66
8145.0,2.01
8147.0,1.92
8150.0,1.61
8152.0,1.39
8154.0,1.11
8156.0,1.5
8158.0,1.86
8160.0,1.64
8162.0,1.38
8164.0,1.39
8166.0,1.75
8168.0,1.72
8170.0,1.61
8172.0,1.4
8174.0,1.5
8176.0,1.58
8178.0,1.67
8179.0,1.75
8181.0,1.37
8183.0,1.37
8185.0,1.74
8187.0,1.96
8189.0,1.98
8192.0,1.54
8194.0,1.45
8196.0,1.66
8198.0,1.86
8200.0,1.57
8202.0,1.44
8204.0,1.65
8206.0,1.96
8208.0,1.75
8210.0,1.53
8212.0,1.63
8214.0,1.49
8216.0,1.5
8218.0,1.61
8220.0,1.51
8221.0,1.59
8223.0,1.35
8225.0,1.69
8227.0,1.96
8229.0,1.78
8231.0,1.45
8233.0,1.25
8236.0,1.17
8238.0,1.36
8240.0,1.51
8242.0,1.57
8244.0,1.82
8246.0,1.85
8248.0,1.87
8250.0,1.79
8252.0,1.55
8254.0,1.29
8256.0,1.33
8258.0,1.6
8260.0,1.62
8262.0,1.48
8264.0,1.72
8265.0,1.56
8267.0,1.82
8269.0,1.85
8271.0,1.57
8273.0,1.25
8275.0,1.39
8278.0,1.77
8280.0,1.56
8282.0,1.41
8284.0,1.45
8286.0,1.86
8288.0,1.87
8290.0,1.72
8292.0,1.56
8294.0,1.42
8296.0,1.63
8298.0,1.62
8300.0,1.69
8302.0,1.76
8304.0,1.67
8306.0,2.05
8307.0,1.99
8309.0,1.81
8311.0,1.56
8313.0,1.44
8315.0,1.67
8317.0,1.84
8320.0,1.41
8322.0,0.99
8324.0,1.29
8326.0,1.95
8328.0,2.1
8330.0,1.85
8332.0,1.49
8334.0,1.22
8336.0,1.53
8338.0,1.61
8340.0,1.65
8342.0,1.56
8344.0,1.69
8346.0,1.78
8348.0,1.43
8350.0,1.5
8351.0,1.39
8353.0,1.15
8355.0,1.4
8357.0,1.47
8359.0,1.17
8361.0,1.33
8364.0,1.55
8366.0,1.91
8368.0,1.87
8370.0,1.6
8372.0,1.39
8374.0,1.27
8376.0,1.46
8378.0,1.6
8380.0,1.29
8382.0,1.07
8384.0,1.14
8386.0,1.47
8388.0,1.43
8390.0,1.33
8392.0,1.21
8393.0,1.23
8395.0,1.49
8397.0,1.65
8399.0,1.45
8401.0,1.42
8403.0,1.25
8406.0,1.76
8408.0,1.64
8410.0,1.32
8412.0,1.26
8414.0,1.17
8416.0,1.4
8418.0,1.53
8420.0,1.35
8422.0,1.14
8424.0,1.43
8426.0,1.53
8428.0,1.32
8430.0,0.85
8432.0,1.34
8434.0,1.22
8436.0,1.1
8437.0,1.24
8439.0,1.38
8441.0,1.38
8443.0,1.91
8445.0,1.74
8448.0,1.57
8450.0,1.26
8452.0,1.09
8454.0,1.11
8456.0,1.33
8458.0,1.28
8460.0,1.06
8462.0,1.14
8464.0,1.23
8466.0,1.37
8468.0,1.37
8470.0,1.35
8472.0,1.32
8474.0,1.02
8476.0,1.11
8478.0,1.85
8479.0,1.2
8481.0,0.61
8483.0,0.61
8485.0,1.05
8487.0,0.99
8489.0,0.87
8492.0,0.68
8494.0,0.65
8496.0,1.01
8498.0,0.55
8500.0,0.28
8502.0,0.72
8504.0,1.08
8506.0,0.96
8508.0,1.0
8510.0,0.59
8512.0,0.63
8514.0,0.76
8516.0,0.93
8518.0,1.17
8520.0,0.74
8522.0,0.6
8523.0,0.92
8525.0,1.0
8527.0,0.82
8529.0,1.15
8531.0,1.23
8534.0,1.23
8536.0,1.27
8538.0,0.98
8540.0,0.57
8542.0,0.8
8544.0,1.37
8546.0,1.57
8548.0,1.24
8550.0,1.07
8552.0,0.78
8554.0,1.01
8556.0,1.57
8558.0,1.57
8560.0,1.14
8562.0,1.1
8564.0,1.03
8566.0,1.16
8567.0,1.82
8569.0,1.46
8571.0,1.16
8573.0,1.19
8576.0,1.19
8578.0,1.44
8580.0,1.44
8582.0,0.81
8584.0,1.0
8586.0,1.39
8588.0,1.26
8590.0,1.18
8592.0,0.77
8594.0,0.52
8596.0,0.29
8598.0,0.9
8600.0,0.42
8602.0,0.43
8604.0,1.09
8606.0,1.36
8608.0,1.29
8609.0,1.33
8611.0,1.49
8613.0,1.19
8615.0,1.09
8617.0,1.12
8620.0,1.53
8622.0,1.45
8624.0,1.24
8626.0,1.23
8628.0,1.57
8630.0,1.53
8632.0,1.34
8634.0,0.93
8636.0,1.16
8638.0,1.26
8640.0,1.28
8642.0,1.41
8644.0,1.81
8646.0,2.24
8648.0,1.91
8650.0,1.49
8652.0,1.33
8653.0,1.14
8655.0,1.17
8657.0,1.25
8659.0,0.68
8662.0,0.92
8664.0,1.41
8666.0,1.95
8668.0,1.65
8670.0,1.32
8672.0,1.35
8674.0,1.2
8676.0,1.68
8678.0,1.6
8680.0,1.19
8682.0,1.7
8684.0,1.98
8686.0,1.81
8688.0,1.73
8690.0,1.54
8692.0,1.93
8694.0,1.87
8695.0,1.85
8697.0,1.69
8699.0,1.3
8701.0,1.47
8704.0,2.31
8706.0,2.58
8708.0,2.54
8710.0,2.45
8712.0,2.28
8714.0,1.86
8716.0,1.7
8718.0,2.18
8720.0,2.34
8722.0,2.2
8724.0,2.4
8726.0,2.42
8728.0,2.54
8730.0,2.14
8732.0,1.87
8734.0,1.32
8736.0,1.42
8738.0,1.7
8739.0,1.9
8741.0,2.06
8743.0,1.86
8745.0,1.46
8748.0,1.98
8750.0,1.94
8752.0,1.82
8754.0,1.47
8756.0,1.64
8758.0,1.48
8760.0,1.74
8762.0,2.01
8764.0,1.95
8766.0,2.02
8768.0,1.56
8770.0,1.74
8772.0,1.62
8774.0,1.79
8776.0,2.11
8778.0,2.0
8780.0,1.71
8782.0,1.14
8783.0,2.0
8785.0,2.36
8787.0,2.05
8790.0,2.15
8792.0,2.46
8794.0,2.31
8796.0,2.26
8798.0,2.54
8800.0,2.19
8802.0,1.91
8804.0,2.46
8806.0,2.61
8808.0,2.61
8810.0,2.33
8812.0,2.19
8814.0,1.65
8816.0,1.89
8818.0,1.86
8820.0,2.05
8822.0,1.78
8824.0,2.37
8826.0,2.74
8827.0,2.58
8829.0,2.17
8832.0,1.93
8834.0,1.92
8836.0,1.64
8838.0,1.67
8840.0,1.88
8842.0,1.46
8844.0,2.27
8846.0,2.51
8848.0,2.31
8850.0,1.99
8852.0,1.88
8854.0,1.71
8856.0,2.11
8858.0,2.23
8860.0,2.13
8862.0,2.26
8864.0,2.41
8866.0,2.45
8868.0,2.25
8869.0,1.82
8871.0,2.15
8873.0,2.02
8876.0,2.22
8878.0,2.36
8880.0,1.88
8882.0,1.48
8884.0,1.69
8886.0,2.0
8888.0,2.31
8890.0,1.9
8892.0,1.75
8894.0,1.93
8896.0,2.1
8898.0,1.95
8900.0,1.67
8902.0,1.67
8904.0,2.04
8906.0,2.22
8908.0,1.96
8910.0,1.86
8912.0,1.56
8913.0,1.24
8915.0,1.67
8918.0,1.76
8920.0,1.64
8922.0,1.56
8924.0,1.64
8926.0,1.78
8928.0,1.56
8930.0,1.23
8932.0,0.96
8934.0,1.58
8936.0,1.85
8938.0,1.59
8940.0,1.35
8942.0,1.47
8944.0,1.73
8946.0,1.72
8948.0,1.39
8950.0,0.9
8952.0,1.4
8954.0,1.19
8956.0,1.52
8957.0,1.54
8960.0,1.55
8962.0,1.18
8964.0,1.28
8966.0,1.36
8968.0,1.33
8970.0,1.19
8972.0,0.92
8974.0,0.9
8976.0,1.12
8978.0,0.92
8980.0,0.41
8982.0,0.34
8984.0,0.58
8986.0,1.27
8988.0,1.29
8990.0,0.7
8992.0,0.95
8994.0,0.92
8996.0,1.04
8998.0,0.89
8999.0,0.49
9001.0,0.41
9004.0,0.62
9006.0,0.78
9008.0,1.06
9010.0,0.85
9012.0,0.47
9014.0,0.4
9016.0,0.69
9018.0,0.57
9020.0,0.47
9022.0,0.35
9024.0,0.8
9026.0,0.95
9028.0,0.85
9030.0,0.61
9032.0,0.31
9034.0,0.25
9036.0,0.65
9038.0,0.54
9040.0,0.11
9041.0,0.06
9043.0,0.97
9046.0,1.28
9048.0,1.14
9050.0,1.08
9052.0,0.73
9054.0,0.62
9056.0,1.0
9058.0,0.95
9060.0,1.05
9062.0,1.22
9064.0,1.12
9066.0,1.31
9068.0,1.2
9070.0,1.12
9072.0,1.1
9074.0,0.96
9076.0,1.31
9078.0,1.34
9080.0,0.82
9082.0,1.12
9084.0,1.24
9085.0,1.46
9088.0,1.43
9090.0,1.21
9092.0,0.94
9094.0,0.88
9096.0,1.42
9098.0,1.5
9100.0,1.21
9102.0,1.07
9104.0,1.48
9106.0,1.42
9108.0,1.35
9110.0,1.64
9112.0,1.34
9114.0,1.2
9116.0,1.38
9118.0,1.25
9120.0,0.97
9122.0,1.2
9124.0,1.57
9126.0,1.58
9128.0,1.58
9129.0,1.43
9132.0,1.16
9134.0,1.14
9136.0,1.38
9138.0,1.41
9140.0,1.05
9142.0,1.08
9144.0,1.64
9146.0,1.81
9148.0,1.78
9150.0,1.54
9152.0,1.34
9154.0,0.92
9156.0,1.36
9158.0,1.54
9160.0,1.35
9162.0,1.58
9164.0,1.92
9166.0,1.71
9168.0,1.67
9170.0,1.49
9172.0,1.46
9174.0,1.3
9176.0,1.6
9178.0,1.54
9180.0,1.34
9182.0,1.33
9184.0,1.71
9186.0,1.67
9188.0,1.56
9190.0,1.32
9192.0,1.49
9194.0,1.7
9196.0,1.7
9198.0,1.24
9200.0,1.2
9202.0,1.3
9204.0,1.84
9206.0,1.87
9208.0,1.91
9210.0,1.66
9212.0,1.59
9214.0,1.29
9217.0,1.43
9218.0,1.58
9220.0,1.58
9222.0,1.61
9224.0,1.96
9226.0,1.88
9228.0,1.78
9230.0,1.55
9232.0,1.56
9234.0,0.98
9236.0,1.6
9238.0,1.64
9240.0,1.23
9242.0,1.48
9244.0,1.75
9246.0,1.82
9248.0,1.79
9250.0,1.75
9252.0,1.61
9254.0,1.59
9256.0,1.92
9259.0,1.65
9261.0,1.86
9262.0,1.81
9264.0,1.95
9266.0,1.98
9268.0,1.76
9270.0,1.57
9272.0,1.65
9274.0,1.41
9276.0,1.66
9278.0,1.76
9280.0,1.61
9282.0,1.54
9284.0,1.68
9286.0,1.88
9288.0,2.01
9290.0,1.85
9292.0,1.57
9294.0,1.43
9296.0,1.41
9298.0,1.92
9300.0,1.65
9303.0,1.62
9305.0,1.92
9306.0,1.98
9308.0,1.7
9310.0,1.51
9312.0,1.57
9314.0,1.51
9316.0,1.66
9318.0,1.67
9320.0,1.5
9322.0,1.68
9324.0,1.89
9326.0,1.94
9328.0,1.94
9330.0,1.59
9332.0,1.33
9334.0,1.21
9336.0,1.61
9338.0,1.7
9340.0,1.53
9342.0,1.73
9345.0,2.02
9347.0,1.64
9349.0,1.6
9350.0,1.54
9352.0,1.53
9354.0,1.47
9356.0,1.4
9358.0,1.48
9360.0,1.29
9362.0,0.85
9364.0,1.48
9366.0,1.85
9368.0,1.66
9370.0,1.66
9372.0,1.57
9374.0,1.47
9376.0,1.52
9378.0,1.59
9380.0,1.61
9382.0,1.61
9384.0,1.79
9387.0,1.53
9389.0,1.55
9391.0,1.93
9392.0,1.89
9394.0,1.71
9396.0,1.69
9398.0,1.29
9400.0,1.2
9402.0,1.5
9404.0,1.94
9406.0,1.82
9408.0,1.76
9410.0,1.62
9412.0,1.18
9414.0,0.98
9416.0,0.93
9418.0,1.64
9420.0,1.58
9422.0,1.62
9424.0,1.69
9426.0,1.5
9428.0,1.8
9431.0,1.77
9433.0,1.49
9435.0,1.32
9436.0,1.8
9438.0,1.75
9440.0,1.48
9442.0,1.43
9444.0,1.64
9446.0,1.65
9448.0,1.5
9450.0,1.21
9452.0,1.01
9454.0,1.09
9456.0,1.34
9458.0,1.55
9460.0,1.15
9462.0,1.12
9464.0,1.35
9466.0,1.36
9468.0,1.39
9470.0,1.41
9473.0,1.27
9475.0,1.65
9477.0,1.5
9479.0,1.4
9480.0,1.25
9482.0,1.09
9484.0,1.27
9486.0,1.79
9488.0,1.52
9490.0,1.58
9492.0,1.6
9494.0,1.51
9496.0,1.43
9498.0,1.24
9500.0,0.84
9502.0,1.13
9504.0,1.39
9506.0,1.35
9508.0,1.01
9510.0,0.95
9512.0,1.06
9515.0,1.29
9517.0,1.24
9519.0,0.7
9521.0,1.0
9523.0,1.33
9524.0,1.61
9526.0,1.33
9528.0,1.27
9530.0,1.92
9532.0,1.44
9534.0,1.18
9536.0,1.28
9538.0,1.33
9540.0,1.41
9542.0,1.48
9544.0,1.61
9546.0,1.37
9548.0,1.11
9550.0,1.24
9552.0,0.87
9554.0,0.59
9556.0,1.1
9559.0,1.31
9561.0,1.55
9563.0,1.49
9565.0,1.63
9567.0,1.49
9568.0,0.97
9570.0,0.96
9572.0,1.32
9574.0,1.25
9576.0,1.77
9578.0,1.5
9580.0,1.12
9582.0,1.05
9584.0,0.91
9586.0,1.47
9588.0,2.15
9590.0,1.58
9592.0,0.94
9594.0,0.85
9596.0,0.44
9598.0,0.27
9601.0,0.51
9603.0,1.32
9605.0,1.33
9607.0,1.35
9609.0,1.14
9611.0,1.89
9612.0,1.4
9614.0,1.29
9616.0,1.12
9618.0,0.51
9620.0,1.45
9622.0,1.88
9624.0,1.71
9626.0,1.6
9628.0,1.53
9630.0,1.42
9632.0,1.25
9634.0,1.41
9636.0,1.2
9638.0,0.84
9640.0,0.98
9643.0,1.18
9645.0,1.55
9647.0,1.94
9649.0,1.64
9651.0,1.56
9653.0,1.43
9655.0,1.23
9656.0,1.07
9658.0,0.87
9660.0,1.21
9662.0,1.82
9664.0,2.06
9666.0,1.53
9668.0,1.21
9670.0,1.5
9672.0,1.29
9674.0,1.69
9676.0,1.86
9678.0,1.41
9680.0,0.95
9682.0,1.17
9684.0,1.97
9687.0,1.92
9689.0,1.76
9691.0,1.37
9693.0,1.12
9695.0,1.03
9697.0,1.28
9698.0,1.3
9700.0,1.6
9702.0,1.9
9704.0,2.11
9706.0,2.09
9708.0,2.05
9710.0,1.76
9712.0,1.5
9714.0,1.27
9716.0,1.73
9718.0,1.7
9720.0,1.52
9722.0,1.96
9724.0,1.77
9726.0,2.07
9729.0,1.99
9731.0,1.78
9733.0,1.27
9735.0,1.62
9737.0,1.86
9739.0,1.68
9741.0,1.81
9742.0,2.02
9744.0,1.97
9746.0,1.91
9748.0,1.65
9750.0,1.45
9752.0,1.23
9754.0,1.5
9756.0,1.64
9758.0,1.67
9760.0,1.95
9762.0,2.14
9764.0,2.67
9766.0,2.64
9768.0,2.31
9771.0,2.29
9773.0,2.01
9775.0,1.99
9777.0,2.2
9779.0,2.16
9781.0,1.9
9783.0,2.18
9785.0,2.37
9786.0,2.13
9788.0,1.87
9790.0,1.79
9792.0,1.61
9794.0,1.76
9796.0,1.75
9798.0,1.49
9800.0,1.19
9802.0,1.32
9804.0,1.43
9806.0,1.75
9808.0,1.8
9810.0,1.87
9812.0,1.83
9815.0,1.98
9817.0,1.69
9819.0,1.29
9821.0,1.11
9823.0,0.95
9825.0,1.95
9827.0,2.81
9828.0,2.62
9830.0,2.72
9832.0,2.37
9834.0,2.59
9836.0,2.37
9838.0,2.28
9840.0,2.19
9842.0,2.45
9844.0,2.42
9846.0,2.51
9848.0,2.37
9850.0,2.2
9852.0,2.05
9854.0,2.07
9857.0,1.93
9859.0,1.87
9861.0,1.87
9863.0,1.64
9865.0,1.83
9867.0,2.01
9869.0,2.15
9871.0,2.03
9872.0,1.71
9874.0,2.14
9876.0,2.02
9878.0,2.15
9880.0,1.76
9882.0,1.73
9884.0,2.07
9886.0,1.61
9888.0,1.47
9890.0,1.57
9892.0,1.71
9894.0,1.84
9896.0,1.91
9899.0,1.73
9901.0,1.47
9903.0,1.6
9905.0,1.58
9907.0,1.7
9909.0,1.75
9911.0,1.52
9913.0,1.24
9915.0,1.32
9916.0,1.54
9918.0,1.21
9920.0,1.26
9922.0,1.62
9924.0,1.62
9926.0,1.75
9928.0,1.31
9930.0,1.15
9932.0,1.03
9934.0,1.42
9936.0,1.44
9938.0,1.27
9940.0,1.47
9943.0,1.52
9945.0,1.35
9947.0,1.63
9949.0,1.49
9951.0,1.08
9953.0,1.19
9955.0,1.35
9957.0,1.3
9958.0,0.88
9960.0,1.13
9962.0,1.43
9964.0,1.46
9966.0,2.24
9968.0,2.09
9970.0,1.94
9972.0,1.66
9974.0,1.85
9976.0,2.13
9978.0,1.85
9980.0,1.35
9982.0,1.23
9985.0,1.59
9987.0,1.53
9989.0,1.22
9991.0,1.64
9993.0,1.62
9995.0,1.55
9997.0,1.29
9999.0,0.76
10001.0,0.67
10002.0,0.76
10004.0,1.05
10006.0,1.02
10008.0,0.82
10010.0,0.65
10012.0,0.61
10014.0,1.03
10016.0,0.67
10018.0,0.34
10020.0,0.25
10022.0,0.55
10024.0,0.72
10027.0,0.53
10029.0,0.34
10031.0,0.3
10033.0,0.0
10035.0,0.32
10037.0,0.75
10039.0,0.56
10041.0,0.46
10043.0,0.76
10044.0,0.84
10046.0,0.8
10048.0,0.62
10050.0,0.35
10052.0,0.36
10054.0,0.43
10056.0,0.22
10058.0,0.17
10060.0,0.4
10062.0,1.06
10064.0,1.68
10066.0,1.8
10068.0,1.67
10071.0,1.5
10073.0,1.57
10075.0,1.72
10077.0,1.8
10079.0,1.86
10081.0,1.66
10083.0,1.58
10085.0,2.06
10087.0,1.98
10088.0,1.72
10090.0,1.47
10092.0,1.69
10094.0,2.17
10096.0,2.13
10098.0,1.89
10100.0,1.86
10102.0,1.8
10104.0,2.15
10106.0,2.09
10108.0,1.82
10110.0,1.62
10113.0,2.01
10115.0,2.42
10117.0,2.18
10119.0,1.89
10121.0,2.1
10123.0,2.05
10125.0,1.85
10127.0,1.78
10129.0,1.98
10130.0,1.82
10132.0,1.46
10134.0,1.53
10136.0,1.8
10138.0,1.65
10140.0,1.56
10142.0,1.74
10144.0,1.71
10146.0,1.6
10148.0,1.46
10150.0,1.04
10152.0,0.95
10155.0,1.39
10157.0,1.4
10159.0,1.29
10161.0,1.25
10163.0,1.49
10165.0,1.17
10167.0,1.3
10169.0,1.15
10171.0,1.0
10172.0,0.72
10174.0,0.77
10176.0,0.57
10178.0,0.42
10180.0,0.43
10182.0,0.56
10184.0,1.93
10186.0,2.11
10188.0,1.48
10190.0,1.21
10192.0,1.3
10194.0,1.4
10196.0,1.35
10199.0,1.14
10201.0,0.88
10203.0,1.11
10205.0,1.34
10207.0,1.34
10209.0,1.26
10211.0,0.83
10213.0,0.7
10215.0,1.34
10216.0,1.25
10218.0,1.02
10220.0,1.0
10222.0,1.4
10224.0,1.52
10226.0,1.55
10228.0,1.49
10230.0,1.29
10232.0,1.54
10234.0,2.25
10236.0,2.1
10238.0,2.11
10241.0,2.53
10243.0,2.6
10245.0,2.66
10247.0,2.54
10249.0,2.21
10251.0,1.9
10253.0,1.89
10255.0,2.27
10257.0,2.11
10258.0,2.06
10260.0,2.33
10262.0,2.43
10264.0,2.73
10266.0,2.28
10268.0,1.93
10270.0,1.82
10272.0,1.95
10274.0,2.23
10276.0,2.31
10278.0,1.99
10280.0,1.82
10283.0,1.71
10285.0,2.04
10287.0,2.08
10289.0,1.59
10291.0,1.3
10293.0,1.39
10295.0,1.96
10297.0,2.11
10299.0,1.82
10300.0,1.54
10302.0,1.6
10304.0,2.04
10306.0,2.17
10308.0,2.05
10310.0,1.78
10312.0,1.92
10314.0,2.11
10316.0,1.98
10318.0,1.68
10320.0,1.47
10322.0,1.66
10324.0,1.63
10327.0,1.34
10329.0,1.55
10331.0,1.84
10333.0,1.81
10335.0,1.84
10337.0,1.65
10339.0,1.64
10341.0,1.7
10343.0,1.81
10344.0,1.89
10346.0,1.92
10348.0,1.65
10350.0,1.34
10352.0,1.2
10354.0,1.39
10356.0,1.49
10358.0,1.75
10360.0,1.68
10362.0,1.76
10364.0,1.92
10366.0,1.85
10369.0,1.39
10371.0,1.07
10373.0,1.63
10375.0,2.01
10377.0,1.76
10379.0,1.44
10381.0,1.22
10383.0,1.32
10385.0,1.59
10386.0,1.39
10388.0,1.21
10390.0,1.25
10392.0,1.35
10394.0,1.39
10396.0,1.15
10398.0,1.13
10400.0,1.5
10402.0,1.5
10404.0,1.57
10406.0,1.73
10408.0,1.91
10411.0,1.78
10413.0,1.96
10415.0,2.07
10417.0,1.76
10419.0,1.44
10421.0,1.31
10423.0,1.55
10425.0,1.72
10427.0,1.68
10429.0,1.17
10430.0,0.97
10432.0,1.12
10434.0,1.41
10436.0,1.29
10438.0,1.28
10440.0,1.39
10442.0,1.45
10444.0,1.48
10446.0,1.43
10448.0,1.3
10450.0,1.07
10452.0,1.4
10455.0,1.7
10457.0,1.69
10459.0,1.54
10461.0,1.62
10463.0,1.59
10465.0,1.72
10467.0,1.93
10469.0,1.62
10471.0,1.39
10472.0,1.29
10474.0,1.76
10476.0,1.86
10478.0,1.71
10480.0,1.7
10482.0,1.61
10484.0,1.72
10486.0,1.65
10488.0,1.5
10490.0,1.14
10492.0,1.08
10494.0,1.4
10497.0,1.54
10499.0,1.74
10501.0,1.65
10503.0,1.47
10505.0,1.55
10507.0,1.76
10509.0,1.61
10511.0,1.55
10513.0,1.3
10514.0,1.66
10516.0,1.43
10518.0,1.1
10520.0,1.19
10522.0,1.54
10524.0,1.25
10526.0,1.34
10528.0,1.06
10530.0,0.81
10532.0,0.97
10534.0,1.08
10536.0,0.36
10539.0,0.47
10541.0,1.01
10543.0,1.25
10545.0,1.34
10547.0,1.35
10549.0,0.92
10551.0,0.54
10553.0,0.98
10555.0,1.49
10557.0,1.17
10558.0,1.25
10560.0,0.8
10562.0,0.88
10564.0,1.49
10566.0,1.58
10568.0,1.13
10570.0,0.99
10572.0,1.43
10574.0,1.8
10576.0,1.38
10578.0,1.31
10580.0,1.5
10583.0,1.47
10585.0,1.26
10587.0,1.21
10589.0,0.59
10591.0,0.67
10593.0,1.47
10595.0,1.82
10597.0,1.55
10599.0,1.15
10600.0,0.72
10602.0,1.34
10604.0,1.97
10606.0,1.62
10608.0,0.86
10610.0,0.76
10612.0,0.94
10614.0,1.32
10616.0,1.47
10618.0,1.38
10620.0,1.14
10622.0,1.25
10625.0,1.78
10627.0,1.39
10629.0,1.17
10631.0,0.84
10633.0,0.97
10635.0,1.1
10637.0,1.65
10639.0,1.79
10641.0,1.66
10642.0,1.25
10644.0,1.14
10646.0,0.49
10648.0,0.55
10650.0,0.79
10652.0,1.19
10654.0,1.53
10656.0,1.48
10658.0,1.35
10660.0,1.07
10662.0,0.7
10664.0,1.2
10667.0,1.26
10669.0,0.79
10671.0,0.36
10673.0,0.52
10675.0,0.41
10677.0,1.12
10679.0,1.2
10681.0,1.32
10683.0,1.03
10685.0,1.4
10686.0,1.08
10688.0,0.37
10690.0,0.7
10692.0,0.77
10694.0,1.4
10696.0,0.98
10698.0,0.95
10700.0,1.16
10702.0,1.22
10704.0,1.24
10706.0,1.34
10708.0,0.91
10711.0,0.81
10713.0,1.09
10715.0,1.2
10717.0,0.88
10719.0,0.83
10721.0,1.19
10723.0,1.02
10725.0,1.2
10727.0,1.35
10728.0,0.72
10730.0,1.06
10732.0,1.46
10734.0,1.43
10736.0,1.33
10738.0,1.21
10740.0,0.95
10742.0,1.3
10744.0,1.09
10746.0,1.2
10748.0,1.29
10750.0,1.17
10753.0,1.22
10755.0,1.28
10757.0,1.52
10759.0,1.45
10761.0,1.1
10763.0,0.96
10765.0,0.66
10767.0,1.31
10769.0,0.94
10770.0,0.67
10772.0,1.1
10774.0,1.37
10776.0,1.2
10778.0,0.98
10780.0,1.28
10782.0,1.51
10784.0,1.4
10786.0,1.31
10788.0,0.73
10790.0,0.54
10792.0,1.75
10795.0,1.97
10797.0,1.75
10799.0,1.37
10801.0,1.08
10803.0,1.47
10805.0,1.52
10807.0,1.62
10809.0,1.48
10811.0,1.73
10813.0,1.89
10814.0,1.7
10816.0,1.71
10818.0,1.74
10820.0,1.51
10822.0,2.11
10824.0,2.92
10826.0,2.83
10828.0,2.41
10830.0,2.28
10832.0,2.54
10834.0,2.47
10836.0,2.2
10839.0,2.54
10841.0,3.05
10843.0,3.05
10845.0,3.02
10847.0,3.03
10849.0,2.71
10851.0,2.92
10853.0,3.18
10855.0,3.11
10856.0,3.23
10858.0,3.0
10860.0,2.83
10862.0,2.96
10864.0,2.71
10866.0,2.2
10868.0,2.13
10870.0,2.48
10872.0,2.55
10874.0,2.83
10876.0,2.84
10878.0,2.54
10881.0,2.06
10883.0,2.05
10885.0,1.58
10887.0,2.22
10889.0,2.41
10891.0,2.23
10893.0,2.06
10895.0,1.99
10897.0,1.5
10898.0,1.77
10900.0,1.95
10902.0,2.05
10904.0,2.02
10906.0,1.87
10908.0,1.44
10910.0,1.4
10912.0,1.58
10914.0,1.7
10916.0,1.43
10918.0,1.69
10920.0,1.45
10923.0,1.77
10925.0,2.07
10927.0,1.75
10929.0,1.17
10931.0,1.75
10933.0,2.07
10935.0,1.94
10937.0,1.52
10939.0,0.94
10941.0,1.36
10942.0,1.95
10944.0,1.99
10946.0,1.69
10948.0,1.41
10950.0,1.35
10952.0,1.44
10954.0,1.12
10956.0,1.28
10958.0,1.34
10960.0,1.83
10962.0,1.61
10964.0,1.54
10967.0,1.5
10969.0,0.91
10971.0,1.04
10973.0,1.41
10975.0,1.52
10977.0,1.4
10979.0,1.34
10981.0,1.04
10983.0,1.15
10984.0,1.33
10986.0,1.13
10988.0,0.98
10990.0,1.21
10992.0,1.27
10994.0,1.62
10996.0,1.41
10998.0,1.16
11000.0,0.98
11002.0,0.98
11004.0,1.06
11006.0,1.24
11009.0,1.0
11011.0,1.02
11013.0,1.35
11015.0,1.24
11017.0,1.23
11019.0,1.34
11021.0,1.15
11023.0,1.23
11025.0,0.97
11027.0,1.29
11028.0,1.14
11030.0,1.1
11032.0,1.1
11034.0,1.55
11036.0,1.24
11038.0,0.89
11040.0,1.15
11042.0,1.25
11044.0,1.06
11046.0,0.93
11048.0,0.5
11051.0,0.54
11053.0,0.99
11055.0,1.28
11057.0,1.01
11059.0,1.03
11061.0,1.01
11063.0,1.15
11065.0,1.12
11067.0,0.56
11069.0,0.0
11070.0,0.16
11072.0,0.58
11074.0,0.5
11076.0,0.35
11078.0,0.91
11080.0,1.16
11082.0,0.94
11084.0,0.55
11086.0,0.98
11088.0,0.53
11090.0,0.76
11092.0,1.01
11095.0,0.92
11097.0,0.98
11099.0,0.77
11101.0,0.85
11103.0,0.81
11105.0,0.86
11107.0,0.87
11109.0,0.68
11111.0,0.84
11112.0,1.14
11114.0,1.13
11116.0,0.98
11118.0,0.83
11120.0,0.66
11122.0,1.28
11124.0,1.44
11126.0,1.31
11128.0,0.83
11130.0,0.98
11132.0,1.36
11134.0,0.99
11137.0,1.19
11139.0,1.42
11141.0,1.57
11143.0,1.67
11145.0,1.76
11147.0,1.51
11149.0,1.1
11151.0,0.85
11153.0,1.48
11155.0,1.72
11156.0,1.53
11158.0,1.55
11160.0,1.62
11162.0,1.31
11164.0,1.62
11166.0,1.43
11168.0,0.97
11170.0,1.25
11172.0,1.62
11174.0,1.49
11176.0,1.43
11179.0,1.37
11181.0,1.56
11183.0,1.75
11185.0,1.8
11187.0,1.63
11189.0,1.34
11191.0,1.09
11193.0,1.91
11195.0,1.77
11197.0,1.68
11198.0,1.48
11200.0,1.54
11202.0,1.47
11204.0,1.71
11206.0,1.77
11208.0,1.45
11210.0,1.21
11212.0,1.58
11214.0,1.33
11216.0,1.65
11218.0,1.37
11220.0,1.58
11223.0,2.09
11225.0,2.13
11227.0,1.74
11229.0,1.24
11231.0,1.35
11233.0,1.69
11235.0,1.55
11237.0,1.61
11239.0,1.64
11240.0,1.7
11242.0,1.48
11244.0,1.56
11246.0,1.56
11248.0,1.36
11250.0,1.42
11252.0,1.72
11254.0,1.76
11256.0,1.56
11258.0,1.63
11260.0,1.78
11262.0,1.8
11265.0,1.57
11267.0,1.51
11269.0,1.15
11271.0,1.54
11273.0,1.79
11275.0,1.7
11277.0,1.36
11279.0,0.89
11281.0,1.23
11283.0,2.3
11284.0,2.09
11286.0,1.72
11288.0,1.49
11290.0,1.37
11292.0,1.65
11294.0,1.77
11296.0,1.7
11298.0,1.51
11300.0,1.53
11302.0,1.74
11304.0,1.72
11307.0,1.4
11309.0,1.13
11311.0,1.21
11313.0,1.84
11315.0,1.57
11317.0,1.62
11319.0,1.77
11321.0,1.64
11323.0,1.44
11325.0,1.3
11326.0,1.43
11328.0,1.68
11330.0,1.48
11332.0,1.69
11334.0,1.69
11336.0,1.52
11338.0,1.23
11340.0,1.18
11342.0,1.24
11344.0,1.83
11346.0,1.73
11348.0,1.54
11351.0,1.55
11353.0,1.75
11355.0,1.5
11357.0,1.71
11359.0,1.72
11361.0,1.56
11363.0,1.85
11365.0,1.76
11367.0,1.45
11368.0,1.39
11370.0,1.44
11372.0,1.77
11374.0,1.9
11376.0,1.85
11378.0,1.61
11380.0,1.78
11382.0,1.89
11384.0,1.76
11386.0,1.67
11388.0,1.36
11390.0,1.25
11393.0,1.73
11395.0,1.8
11397.0,1.6
11399.0,1.55
11401.0,1.58
11403.0,1.51
11405.0,1.85
11407.0,1.81
11409.0,1.24
11411.0,1.27
11412.0,1.66
11414.0,1.6
11416.0,1.56
11418.0,1.34
11420.0,1.25
11422.0,1.59
11424.0,1.46
11426.0,1.56
11428.0,1.46
11430.0,1.33
11432.0,1.58
11435.0,1.77
11437.0,1.74
11439.0,1.78
11441.0,1.64
11443.0,1.56
11445.0,1.58
11447.0,1.15
11449.0,0.65
11451.0,0.29
11453.0,0.45
11454.0,0.91
11456.0,0.92
11458.0,0.85
11460.0,0.43
11462.0,0.77
11464.0,0.85
11466.0,0.63
11468.0,0.44
11470.0,0.64
11472.0,0.99
11474.0,1.3
11476.0,1.11
11479.0,0.95
11481.0,1.01
11483.0,1.29
11485.0,1.17
11487.0,1.06
11489.0,0.74
11491.0,0.91
11493.0,1.12
11495.0,1.36
11496.0,1.11
11498.0,1.27
11500.0,1.53
11502.0,1.77
11504.0,1.82
11506.0,1.47
11508.0,1.19
11510.0,1.32
11512.0,1.33
11514.0,1.78
11516.0,1.85
11518.0,1.41
11521.0,1.17
11523.0,1.1
11525.0,1.7
11527.0,1.16
11529.0,1.06
11531.0,1.21
11533.0,1.53
11535.0,1.56
11537.0,1.73
11539.0,1.43
11540.0,1.29
11542.0,1.52
11544.0,1.94
11546.0,1.32
11548.0,0.68
11550.0,1.01
11552.0,1.59
11554.0,1.89
11556.0,1.71
11558.0,1.23
11560.0,1.13
11563.0,1.4
11565.0,1.91
11567.0,1.61
11569.0,1.17
11571.0,1.3
11573.0,1.37
11575.0,0.95
11577.0,1.11
11579.0,1.17
11581.0,1.27
11582.0,0.98
11584.0,0.95
11586.0,1.29
11588.0,0.56
11590.0,0.78
11592.0,0.59
11594.0,0.48
11596.0,1.02
11598.0,1.31
11600.0,1.28
11602.0,1.62
11604.0,1.67
11607.0,1.27
11609.0,0.62
11611.0,0.95
11613.0,1.04
11615.0,1.12
11617.0,1.06
11619.0,0.75
11621.0,1.2
11623.0,1.48
11624.0,1.2
11626.0,1.35
11628.0,0.72
11630.0,0.98
11632.0,1.22
11634.0,0.78
11636.0,0.99
11638.0,1.65
11640.0,1.7
11642.0,1.62
11644.0,1.44
11646.0,0.89
11649.0,0.52
11651.0,0.6
11653.0,1.87
11655.0,1.82
11657.0,1.62
11659.0,1.45
11661.0,1.16
11663.0,1.59
11665.0,1.4
11667.0,1.08
11668.0,1.32
11670.0,1.72
11672.0,2.1
11674.0,2.24
11676.0,2.1
11678.0,1.85
11680.0,1.85
11682.0,1.9
11684.0,1.71
11686.0,1.76
11688.0,1.59
11691.0,1.36
11693.0,1.6
11695.0,1.5
11697.0,1.41
11699.0,1.01
11701.0,0.79
11703.0,1.76
11705.0,2.2
11707.0,1.96
11709.0,1.87
11710.0,1.42
11712.0,1.67
11714.0,1.65
11716.0,1.06
11718.0,0.99
11720.0,1.25
11722.0,1.43
11724.0,1.38
11726.0,1.43
11728.0,1.12
11730.0,1.1
11732.0,1.25
11735.0,1.44
11737.0,1.6
11739.0,1.35
11741.0,1.56
11743.0,1.52
11745.0,1.52
11747.0,1.01
11749.0,0.9
11751.0,1.42
11752.0,1.73
11754.0,1.37
11756.0,1.31
11758.0,1.17
11760.0,1.21
11762.0,1.25
11764.0,1.16
11766.0,0.99
11768.0,0.89
11770.0,0.97
11772.0,1.33
11774.0,1.06
11777.0,1.02
11779.0,0.85
11781.0,1.07
11783.0,1.8
11785.0,1.9
11787.0,1.55
11789.0,1.37
11791.0,1.39
11793.0,1.83
11795.0,1.67
11796.0,1.25
11798.0,1.28
11800.0,1.73
11802.0,2.08
11804.0,2.15
11806.0,2.07
11808.0,1.7
11810.0,1.74
11812.0,1.91
11814.0,1.72
11816.0,1.87
11819.0,2.15
11821.0,2.54
11823.0,2.66
11825.0,2.63
11827.0,2.37
11829.0,2.0
11831.0,2.2
11833.0,2.56
11835.0,2.54
11837.0,2.36
11838.0,1.7
11840.0,2.67
11842.0,3.16
11844.0,2.94
11846.0,2.28
11848.0,2.2
11850.0,2.75
11852.0,2.99
11854.0,2.95
11856.0,2.9
11858.0,2.84
11860.0,2.7
11863.0,2.84
11865.0,2.68
11867.0,2.31
11869.0,2.27
11871.0,2.31
11873.0,2.43
11875.0,2.56
11877.0,2.81
11879.0,2.98
11881.0,2.68
11882.0,2.51
11884.0,2.9
11886.0,2.3
11888.0,2.41
11890.0,2.55
11892.0,2.6
11894.0,2.52
11896.0,2.3
11898.0,2.25
11900.0,2.29
11902.0,2.21
11905.0,2.07
11907.0,1.8
11909.0,2.2
11911.0,2.22
11913.0,2.3
11915.0,2.08
11917.0,2.06
11919.0,1.67
11921.0,1.52
11923.0,2.16
11924.0,2.06
11926.0,1.86
11928.0,1.47
11930.0,1.68
11932.0,1.75
11934.0,1.96
11936.0,2.07
11938.0,1.8
11940.0,2.08
11942.0,1.75
11944.0,1.55
11947.0,0.99
11949.0,0.92
11951.0,1.36
11953.0,1.64
11955.0,1.28
11957.0,1.19
11959.0,1.17
11961.0,1.41
11963.0,1.36
11965.0,1.23
11966.0,0.64
11968.0,0.9
11970.0,1.27
11972.0,1.35
11974.0,1.32
11976.0,0.84
11978.0,0.67
11980.0,0.54
11982.0,1.73
11984.0,1.93
11986.0,1.44
11988.0,0.87
11991.0,1.27
11993.0,1.36
11995.0,1.41
11997.0,1.2
11999.0,1.19
12001.0,1.02
12003.0,1.55
12005.0,1.7
12007.0,1.39
12009.0,1.27
12010.0,1.23
12012.0,1.13
12014.0,0.93
12016.0,1.01
12018.0,1.12
12020.0,1.3
12022.0,1.27
12024.0,1.24
12026.0,1.1
12028.0,1.06
12030.0,1.04
12033.0,0.98
12035.0,0.93
12037.0,0.81
12039.0,0.77
12041.0,1.15
12043.0,1.19
12045.0,1.1
12047.0,0.89
12049.0,0.72
12051.0,0.92
12052.0,0.89
12054.0,0.5
12056.0,0.44
12058.0,0.4
12060.0,0.47
12062.0,0.46
12064.0,0.33
12066.0,0.15
12068.0,0.18
12070.0,0.32
12072.0,0.61
12075.0,0.47
12077.0,0.01
12079.0,0.08
12081.0,0.59
12083.0,0.53
12085.0,0.65
12087.0,0.29
12089.0,0.55
12091.0,0.68
12093.0,0.48
12094.0,0.45
12096.0,0.42
12098.0,0.29
12100.0,0.41
12102.0,0.59
12104.0,0.58
12106.0,0.08
12108.0,0.14
12110.0,0.72
12112.0,1.13
12114.0,0.75
12116.0,0.35
12119.0,0.5
12121.0,0.8
12123.0,1.07
12125.0,1.31
12127.0,0.88
12129.0,1.04
12131.0,1.12
12133.0,1.38
12135.0,1.45
12137.0,1.08
12138.0,1.59
12140.0,1.78
12142.0,1.88
12144.0,1.86
12146.0,1.6
12148.0,1.31
12150.0,1.75
12152.0,1.95
12154.0,2.04
12156.0,1.94
12158.0,2.1
12161.0,2.17
12163.0,2.13
12165.0,1.96
12167.0,2.18
12169.0,1.61
12171.0,1.79
12173.0,2.15
12175.0,2.63
12177.0,2.23
12179.0,2.18
12180.0,2.13
12182.0,1.92
12184.0,1.97
12186.0,1.77
12188.0,1.78
12190.0,2.04
12192.0,2.12
12194.0,1.9
12196.0,1.77
12198.0,1.62
12200.0,1.69
12203.0,1.8
12205.0,1.67
12207.0,1.51
12209.0,1.24
12211.0,1.64
12213.0,1.73
12215.0,1.33
12217.0,1.25
12219.0,1.84
12221.0,1.78
12223.0,1.78
12224.0,1.87
12226.0,1.58
12228.0,1.23
12230.0,1.55
12232.0,1.88
12234.0,1.89
12236.0,1.68
12238.0,1.63
12240.0,1.84
12242.0,1.75
12244.0,1.76
12247.0,1.57
12249.0,1.73
12251.0,2.02
12253.0,2.02
12255.0,1.94
12257.0,2.1
12259.0,1.99
12261.0,1.98
12263.0,1.97
12265.0,1.9
12266.0,1.48
12268.0,1.38
12270.0,2.0
12272.0,2.15
12274.0,1.51
12276.0,1.59
12278.0,1.71
12280.0,2.27
12282.0,2.21
12284.0,2.11
12286.0,1.56
12289.0,1.14
12291.0,1.52
12293.0,1.97
12295.0,1.56
12297.0,1.26
12299.0,1.0
12301.0,1.54
12303.0,2.02
12305.0,1.74
12307.0,1.52
12308.0,1.46
12310.0,1.56
12312.0,1.74
12314.0,1.77
12316.0,1.53
12318.0,1.47
12320.0,1.51
12322.0,1.86
12324.0,1.87
12326.0,1.58
12328.0,1.14
12331.0,1.85
12333.0,2.02
12335.0,1.69
12337.0,1.52
12339.0,1.86
12341.0,1.97
12343.0,2.0
12345.0,2.04
12347.0,1.69
12349.0,1.61
12351.0,1.91
12352.0,2.1
12354.0,2.05
12356.0,1.96
12358.0,1.73
12360.0,1.34
12362.0,1.49
12364.0,2.08
12366.0,1.72
12368.0,1.66
12370.0,1.8
12372.0,1.82
12375.0,1.7
12377.0,1.26
12379.0,1.43
12381.0,1.79
12383.0,1.95
12385.0,1.86
12387.0,1.6
12389.0,1.53
12391.0,1.78
12393.0,1.9
12394.0,1.52
12396.0,1.42
12398.0,1.29
12400.0,1.56
12402.0,1.75
12404.0,1.55
12406.0,0.98
12408.0,1.02
12410.0,1.31
12412.0,1.72
12414.0,1.48
12417.0,1.08
12419.0,1.44
12421.0,1.43
12423.0,1.75
12425.0,1.67
12427.0,1.1
12429.0,1.08
12431.0,1.2
12433.0,1.55
12435.0,1.36
12436.0,1.28
12438.0,1.37
12440.0,1.61
12442.0,1.43
12444.0,1.35
12446.0,0.85
12448.0,0.87
12450.0,1.44
12452.0,2.06
12454.0,1.85
12456.0,1.37
12459.0,1.23
12461.0,1.03
12463.0,1.44
12465.0,1.64
12467.0,1.35
12469.0,1.52
12471.0,1.41
12473.0,2.1
12475.0,1.85
12477.0,1.65
12479.0,1.49
12480.0,1.74
12482.0,1.84
12484.0,1.65
12486.0,1.36
12488.0,1.56
12490.0,1.76
12492.0,1.63
12494.0,1.18
12496.0,1.17
12498.0,1.51
12500.0,1.62
12503.0,1.31
12505.0,1.25
12507.0,1.03
12509.0,0.8
12511.0,1.41
12513.0,1.21
12515.0,1.15
12517.0,1.6
12519.0,1.39
12521.0,1.53
12522.0,1.55
12524.0,1.32
12526.0,1.01
12528.0,1.0
12530.0,1.31
12532.0,1.54
12534.0,1.82
12536.0,1.36
12538.0,1.32
12540.0,1.56
12542.0,1.81
12545.0,1.73
12547.0,1.06
12549.0,0.74
12551.0,1.55
12553.0,2.05
12555.0,1.68
12557.0,1.65
12559.0,1.79
12561.0,1.84
12563.0,1.74
12564.0,1.51
12566.0,0.89
12568.0,1.02
12570.0,1.73
12572.0,1.77
12574.0,1.53
12576.0,1.2
12578.0,1.35
12580.0,1.46
12582.0,1.69
12584.0,1.21
12587.0,1.05
12589.0,1.75
12591.0,1.65
12593.0,0.46
12595.0,1.22
12597.0,2.59
12599.0,2.36
12601.0,2.24
12603.0,1.91
12605.0,1.67
12607.0,1.44
12608.0,1.32
12610.0,0.8
12612.0,0.54
12614.0,1.34
12616.0,1.66
12618.0,1.63
12620.0,1.41
12622.0,1.4
12624.0,0.86
12626.0,0.29
12628.0,0.41
12631.0,0.86
12633.0,1.47
12635.0,1.6
12637.0,1.56
12639.0,1.35
12641.0,1.2
12643.0,1.13
12645.0,0.64
12647.0,0.02
12649.0,1.09
12650.0,1.66
12652.0,1.67
12654.0,1.64
12656.0,1.4
12658.0,1.25
12660.0,1.24
12662.0,0.92
12664.0,0.84
12666.0,0.0
12668.0,0.6
12670.0,2.29
12673.0,1.99
12675.0,1.26
12677.0,1.01
12679.0,1.27
12681.0,1.66
12683.0,1.98
12685.0,1.94
12687.0,1.65
12689.0,1.59
12691.0,1.86
12692.0,2.03
12694.0,1.52
12696.0,2.14
12698.0,2.4
12700.0,2.38
12702.0,2.67
12704.0,2.5
12706.0,1.74
12708.0,1.61
12710.0,2.18
12712.0,2.19
12715.0,1.71
12717.0,1.54
12719.0,2.15
12721.0,2.84
12723.0,2.81
12725.0,2.2
12727.0,1.94
12729.0,1.54
12731.0,2.19
12733.0,3.21
12735.0,3.06
12736.0,3.3
12738.0,3.3
12740.0,3.3
12742.0,3.3
12744.0,3.27
12746.0,2.94
12748.0,2.17
12750.0,2.47
12752.0,3.3
12754.0,3.3
12756.0,3.09
12759.0,2.36
12761.0,1.72
12763.0,1.86
12765.0,1.94
12767.0,1.55
12769.0,1.82
12771.0,2.2
12773.0,2.87
12775.0,2.71
12777.0,2.12
12778.0,1.84
12780.0,2.21
12782.0,2.07
12784.0,1.78
12786.0,1.7
12788.0,2.75
12790.0,3.19
12792.0,3.18
12794.0,3.12
12796.0,3.3
12798.0,3.3
12801.0,3.3
12803.0,3.3
12805.0,3.3
12807.0,3.3
12809.0,3.3
12811.0,3.3
12813.0,3.3
12815.0,3.3
12817.0,3.3
12819.0,3.3
12820.0,3.3
12822.0,3.3
12824.0,3.3
12826.0,3.3
12828.0,3.3
12830.0,3.3
12832.0,3.23
12834.0,3.3
12836.0,3.3
12838.0,3.3
12840.0,3.3
12843.0,3.3
12845.0,3.3
12847.0,3.3
12849.0,3.3
12851.0,3.3
12853.0,3.23
12855.0,2.35
12857.0,2.43
12859.0,2.22
12861.0,2.45
12863.0,1.78
12864.0,1.52
12866.0,1.42
12868.0,1.45
12870.0,1.5
12872.0,1.26
12874.0,0.75
12876.0,0.0
12878.0,0.0
12880.0,0.0
12882.0,0.0
12884.0,0.0
12887.0,0.0
12889.0,0.0
12891.0,0.0
12893.0,0.0
12895.0,0.0
12897.0,0.0
12899.0,0.0
12901.0,0.0
12903.0,0.0
12905.0,0.0
12906.0,0.84
12908.0,1.92
12910.0,2.95
12912.0,3.3
12914.0,3.3
12916.0,3.3
12918.0,3.3
12920.0,3.3
12922.0,3.3
12924.0,3.3
12926.0,3.0
12929.0,3.28
12931.0,3.3
12933.0,3.3
12935.0,3.3
12937.0,3.01
12939.0,3.21
12941.0,3.3
12943.0,2.89
12945.0,2.35
12947.0,2.38
12948.0,2.43
12950.0,2.52
12952.0,2.35
12954.0,2.12
12956.0,2.32
12958.0,1.77
12960.0,1.47
12962.0,1.3
12964.0,0.7
12966.0,1.35
12968.0,1.7
12971.0,1.73
12973.0,1.59
12975.0,1.34
12977.0,1.24
12979.0,0.92
12981.0,0.7
12983.0,0.53
12985.0,0.43
12987.0,0.64
12989.0,0.81
12991.0,0.89
12992.0,0.85
12994.0,0.63
12996.0,0.46
12998.0,0.25
13000.0,0.36
13002.0,0.01
13004.0,0.0
13006.0,0.0
13008.0,0.09
13010.0,0.45
13012.0,0.31
13015.0,0.0
13017.0,0.0
13019.0,0.0
13021.0,0.0
13023.0,0.0
13025.0,0.0
13027.0,0.0
13029.0,0.0
13031.0,0.0
13033.0,0.0
13034.0,0.0
13036.0,0.0
13038.0,0.0
13040.0,0.0
13042.0,0.0
13044.0,0.0
13046.0,0.0
13048.0,0.0
13050.0,0.0
13052.0,0.0
13054.0,0.0
13057.0,0.0
13059.0,0.0
13061.0,0.0
13063.0,0.0
13065.0,0.0
13067.0,0.0
13069.0,0.0
13071.0,0.0
13073.0,0.0
13075.0,0.0
13076.0,0.0
13078.0,0.0
13080.0,0.0
13082.0,0.0
13084.0,0.0
13086.0,0.0
13088.0,0.0
13090.0,0.0
13092.0,0.0
13094.0,0.0
13096.0,0.0
13099.0,0.0
13101.0,0.0
13103.0,0.0
13105.0,0.0
13107.0,0.0
13109.0,0.01
13111.0,0.0
13113.0,0.0
13115.0,0.12
13117.0,0.08
13119.0,0.11
13120.0,0.02
13122.0,0.0
13124.0,0.0
13126.0,0.1
13128.0,0.18
13130.0,0.26
13132.0,0.27
13134.0,0.53
13136.0,0.46
13138.0,0.35
13140.0,0.21
13143.0,0.41
13145.0,0.16
13147.0,0.05
13149.0,0.87
13151.0,1.3
13153.0,1.36
13155.0,0.98
13157.0,0.85
13159.0,0.92
13161.0,1.41
13162.0,1.16
13164.0,0.94
13166.0,1.03
13168.0,1.58
13170.0,1.67
13172.0,2.01
13174.0,1.84
13176.0,1.89
13178.0,2.04
13180.0,1.75
13182.0,1.49
13185.0,1.71
13187.0,1.86
13189.0,1.96
13191.0,1.89
13193.0,1.94
13195.0,1.58
13197.0,1.86
13199.0,1.79
13201.0,1.63
13203.0,1.71
13205.0,1.75
13206.0,2.03
13208.0,1.33
13210.0,1.41
13212.0,1.58
13214.0,1.61
13216.0,1.94
13218.0,1.95
13220.0,1.48
13222.0,1.15
13224.0,0.88
13227.0,0.98
13229.0,1.0
13231.0,1.33
13233.0,1.3
13235.0,1.25
13237.0,1.12
13239.0,1.27
13241.0,1.23
13243.0,0.84
13245.0,0.68
13247.0,0.8
13248.0,0.75
13250.0,1.46
13252.0,1.79
13254.0,1.58
13256.0,1.3
13258.0,1.39
13260.0,1.45
13262.0,1.33
13264.0,1.21
13266.0,1.24
13268.0,1.35
13271.0,1.6
13273.0,1.49
13275.0,1.31
13277.0,1.25
13279.0,1.7
13281.0,1.93
13283.0,1.55
13285.0,1.51
13287.0,1.67
13289.0,1.89
13290.0,1.97
13292.0,1.84
13294.0,1.8
13296.0,1.59
13298.0,1.63
13300.0,1.69
13302.0,1.49
13304.0,1.62
13306.0,1.68
13308.0,1.89
13310.0,2.14
13313.0,1.61
13315.0,1.58
13317.0,1.98
13319.0,1.83
13321.0,1.99
13323.0,1.59
13325.0,1.1
13327.0,1.0
13329.0,1.76
13331.0,2.61
13333.0,2.22
13334.0,1.98
13336.0,2.1
13338.0,2.17
13340.0,2.07
13342.0,1.39
13344.0,0.85
13346.0,1.49
13348.0,1.86
13350.0,1.79
13352.0,1.82
13355.0,1.47
13357.0,1.65
13359.0,1.66
13361.0,1.59
13363.0,1.36
13365.0,0.98
13367.0,0.78
13369.0,0.99
13371.0,1.48
13373.0,1.69
13375.0,1.45
13376.0,0.9
13378.0,1.27
13380.0,1.67
13382.0,1.55
13384.0,1.39
13386.0,1.47
13388.0,1.52
13390.0,1.41
13392.0,1.6
13394.0,1.76
13396.0,1.93
13399.0,1.86
13401.0,1.88
13403.0,1.28
13405.0,0.99
13407.0,1.77
13409.0,1.75
13411.0,2.08
13413.0,2.14
13415.0,2.13
13417.0,1.83
13418.0,1.85
13420.0,1.74
13422.0,1.56
13424.0,1.22
13426.0,1.25
13428.0,1.59
13430.0,1.99
13432.0,1.89
13434.0,1.99
13436.0,1.73
13438.0,2.0
13441.0,1.82
13443.0,1.13
13445.0,1.1
13447.0,1.16
13449.0,1.21
13451.0,1.92
13453.0,1.75
13455.0,1.6
13457.0,1.72
13459.0,1.33
13461.0,1.38
13462.0,1.76
13464.0,1.57
13466.0,1.43
13468.0,1.75
13470.0,1.87
13472.0,1.86
13474.0,1.61
13476.0,1.3
13478.0,1.13
13480.0,1.26
13483.0,1.35
13485.0,1.37
13487.0,1.21
13489.0,1.35
13491.0,2.02
13493.0,1.83
13495.0,1.63
13497.0,1.65
13499.0,1.48
13501.0,1.06
13503.0,1.65
13504.0,1.88
13506.0,1.75
13508.0,1.86
13510.0,1.73
13512.0,1.45
13514.0,1.76
13516.0,2.05
13518.0,2.04
13520.0,1.8
13522.0,1.44
13524.0,1.06
13527.0,0.37
13529.0,0.67
13531.0,1.47
13533.0,2.1
13535.0,2.01
13537.0,1.88
13539.0,1.86
13541.0,1.67
13543.0,1.44
13545.0,1.1
13546.0,1.25
13548.0,1.48
13550.0,1.05
13552.0,0.73
13554.0,1.22
13556.0,2.34
13558.0,2.17
13560.0,1.74
13562.0,1.14
13564.0,0.42
13566.0,1.04
13569.0,2.1
13571.0,2.21
13573.0,1.83
13575.0,1.45
13577.0,1.3
13579.0,1.22
13581.0,1.42
13583.0,1.09
13585.0,0.87
13587.0,1.44
13589.0,1.44
13590.0,1.44
13592.0,1.44
13594.0,1.3
13596.0,0.92
13598.0,0.55
13600.0,1.62
13602.0,1.72
13604.0,1.35
13606.0,1.34
13608.0,1.0
13611.0,1.3
13613.0,1.38
13615.0,1.09
13617.0,1.12
13619.0,1.2
13621.0,1.04
13623.0,1.33
13625.0,1.29
13627.0,1.42
13629.0,1.56
13631.0,1.11
13632.0,0.66
13634.0,1.56
13636.0,1.5
13638.0,1.64
13640.0,1.46
13642.0,1.26
13644.0,1.1
13646.0,0.77
13648.0,1.25
13650.0,1.68
13652.0,1.36
13655.0,1.36
13657.0,1.54
13659.0,1.4
13661.0,1.29
13663.0,0.4
13665.0,0.07
13667.0,0.75
13669.0,1.75
13671.0,1.32
13673.0,1.23
13674.0,1.6
13676.0,1.86
13678.0,1.83
13680.0,1.48
13682.0,1.15
13684.0,0.92
13686.0,1.26
13688.0,1.36
13690.0,1.37
13692.0,1.31
13694.0,1.53
13697.0,1.55
13699.0,1.31
13701.0,1.22
13703.0,1.4
13705.0,1.51
13707.0,1.79
13709.0,1.75
13711.0,1.37
13713.0,1.14
13715.0,1.2
13717.0,1.84
13718.0,2.2
13720.0,2.2
13722.0,1.56
13724.0,1.42
13726.0,1.31
13728.0,1.55
13730.0,1.68
13732.0,1.66
13734.0,1.42
13736.0,1.18
13739.0,1.25
13741.0,1.13
13743.0,0.82
13745.0,0.94
13747.0,1.17
13749.0,1.5
13751.0,0.99
13753.0,1.48
13755.0,1.57
13757.0,1.53
13759.0,1.79
13760.0,1.75
13762.0,1.43
13764.0,1.08
13766.0,0.95
13768.0,1.6
13770.0,1.79
13772.0,1.98
13774.0,1.78
13776.0,1.59
13778.0,1.65
13780.0,1.45
13783.0,1.36
13785.0,1.19
13787.0,1.09
13789.0,1.68
13791.0,2.07
13793.0,1.42
13795.0,1.71
13797.0,1.86
13799.0,1.89
13801.0,1.68
13802.0,1.77
13804.0,1.68
13806.0,1.87
13808.0,1.65
13810.0,1.44
13812.0,1.51
13814.0,1.63
13816.0,1.62
13818.0,1.99
13820.0,1.82
13822.0,1.49
13825.0,1.38
13827.0,1.51
13829.0,1.39
13831.0,1.33
13833.0,1.85
13835.0,1.72
13837.0,1.49
13839.0,1.45
13841.0,2.01
13843.0,1.73
13845.0,1.52
13846.0,1.63
13848.0,1.67
13850.0,1.46
13852.0,1.37
13854.0,1.75
13856.0,1.77
13858.0,1.87
13860.0,1.64
13862.0,1.64
13864.0,1.56
13867.0,1.69
13869.0,1.89
13871.0,1.85
13873.0,2.13
13875.0,2.01
13877.0,1.8
13879.0,1.83
13881.0,1.59
13883.0,1.39
13885.0,1.26
13887.0,0.85
13888.0,1.33
13890.0,1.66
13892.0,1.89
13894.0,1.72
13896.0,1.68
13898.0,1.7
13900.0,1.29
13902.0,1.02
13904.0,1.29
13906.0,1.3
13908.0,1.59
13911.0,1.58
13913.0,1.36
13915.0,1.4
13917.0,1.28
13919.0,1.45
13921.0,1.4
13923.0,1.31
13925.0,1.5
13927.0,1.32
13929.0,0.75
13930.0,0.83
13932.0,1.55
13934.0,1.71
13936.0,1.74
13938.0,1.64
13940.0,1.32
13942.0,1.76
13944.0,1.52
13946.0,1.81
13948.0,2.21
13950.0,2.08
13953.0,1.63
13955.0,1.81
13957.0,1.92
13959.0,1.55
13961.0,0.95
13963.0,1.25
13965.0,1.89
13967.0,1.75
13969.0,1.63
13971.0,1.52
13973.0,1.48
13974.0,1.32
13976.0,1.25
13978.0,0.86
13980.0,0.37
13982.0,0.37
13984.0,0.0
13986.0,0.53
13988.0,0.95
13990.0,0.92
13992.0,0.82
13995.0,0.33
13997.0,0.1
13999.0,0.6
14001.0,0.43
14003.0,0.0
14005.0,0.46
14007.0,0.95
14009.0,0.79
14011.0,0.42
14013.0,0.19
14015.0,0.71
14016.0,0.91
14018.0,0.7
14020.0,0.41
14022.0,0.2
14024.0,0.33
14026.0,0.53
14028.0,0.69
14030.0,0.66
14032.0,0.41
14034.0,0.4
14036.0,0.09
14039.0,0.54
14041.0,1.27
14043.0,0.9
14045.0,0.75
14047.0,0.74
14049.0,1.02
14051.0,1.01
14053.0,0.8
14055.0,0.81
14057.0,0.75
14058.0,1.0
14060.0,1.06
14062.0,0.99
14064.0,0.81
14066.0,1.01
14068.0,1.27
14070.0,1.18
14072.0,1.03
14074.0,1.3
14076.0,1.33
14078.0,1.14
14081.0,1.43
14083.0,1.29
14085.0,1.51
14087.0,1.22
14089.0,1.43
14091.0,1.66
14093.0,1.85
14095.0,1.68
14097.0,1.94
14099.0,2.04
14101.0,1.74
14102.0,1.46
14104.0,1.38
14106.0,1.74
14108.0,2.02
14110.0,2.04
14112.0,1.74
14114.0,1.65
14116.0,1.62
14118.0,1.93
14120.0,1.93
14123.0,1.6
14125.0,1.67
14127.0,2.04
14129.0,2.11
14131.0,2.0
14133.0,1.91
14135.0,1.88
14137.0,1.91
14139.0,1.98
14141.0,1.9
14143.0,1.82
14144.0,1.74
14146.0,2.05
14148.0,2.34
14150.0,2.45
14152.0,2.16
14154.0,2.05
14156.0,1.85
14158.0,1.91
14160.0,1.58
14162.0,1.6
14164.0,2.09
14167.0,2.06
14169.0,2.21
14171.0,2.48
14173.0,2.44
14175.0,2.43
14177.0,2.35
14179.0,2.25
14181.0,1.99
14183.0,1.65
14185.0,1.75
14186.0,2.02
14188.0,2.03
14190.0,2.04
14192.0,2.0
14194.0,2.08
14196.0,2.25
14198.0,2.4
14200.0,2.24
14202.0,1.82
14204.0,1.73
14206.0,1.84
14209.0,1.87
14211.0,1.96
14213.0,1.88
14215.0,1.84
14217.0,1.65
14219.0,1.28
14221.0,2.05
14223.0,1.95
14225.0,1.71
14227.0,2.01
14229.0,2.75
14230.0,2.91
14232.0,2.62
14234.0,2.09
14236.0,1.9
14238.0,1.17
14240.0,1.35
14242.0,1.5
14244.0,1.38
14246.0,1.61
14248.0,1.72
14251.0,1.93
14253.0,2.19
14255.0,2.1
14257.0,2.27
14259.0,2.45
14261.0,2.11
14263.0,1.84
14265.0,1.84
14267.0,1.77
14269.0,2.06
14271.0,2.1
14272.0,1.88
14274.0,1.97
14276.0,1.72
14278.0,1.62
14280.0,1.64
14282.0,1.49
14284.0,1.41
14286.0,1.52
14288.0,1.9
14290.0,1.78
14292.0,1.72
14295.0,1.81
14297.0,1.75
14299.0,1.59
14301.0,1.23
14303.0,1.3
14305.0,1.39
14307.0,1.47
14309.0,1.51
14311.0,1.32
14313.0,0.97
14315.0,0.91
14316.0,1.5
14318.0,2.14
14320.0,2.42
14322.0,2.18
14324.0,1.96
14326.0,2.15
14328.0,2.09
14330.0,2.04
14332.0,1.53
14334.0,1.81
14337.0,2.1
14339.0,2.07
14341.0,1.96
14343.0,1.56
14345.0,1.19
14347.0,1.21
14349.0,1.5
14351.0,1.91
14353.0,1.8
14355.0,1.63
14357.0,1.51
14358.0,1.53
14360.0,0.89
14362.0,0.52
14364.0,1.2
14366.0,1.38
14368.0,1.57
14370.0,1.72
14372.0,1.61
14374.0,1.39
14376.0,1.45
14379.0,1.36
14381.0,1.15
14383.0,1.65
14385.0,1.73
14387.0,1.83
14389.0,1.62
14391.0,1.44
14393.0,1.7
14395.0,1.62
14397.0,1.57
14399.0,1.73
14400.0,1.39
14402.0,0.72
14404.0,1.13
14406.0,1.84
14408.0,1.89
14410.0,1.45
14412.0,1.35
14414.0,1.45
14416.0,1.75
14418.0,1.69
14420.0,1.38
14423.0,1.34
14425.0,1.36
14427.0,1.35
14429.0,1.31
14431.0,1.45
14433.0,1.39
14435.0,1.48
14437.0,1.69
14439.0,1.38
14441.0,0.94
14443.0,1.19
14444.0,1.11
14446.0,1.37
14448.0,1.6
14450.0,1.6
14452.0,1.39
14454.0,1.39
14456.0,1.32
14458.0,1.39
14460.0,1.1
14462.0,0.8
14465.0,0.89
14467.0,1.07
14469.0,1.78
14471.0,2.24
14473.0,2.0
14475.0,1.88
14477.0,1.6
14479.0,1.56
14481.0,1.15
14483.0,0.82
14485.0,0.4
14486.0,1.25
14488.0,1.51
14490.0,1.55
14492.0,1.18
14494.0,1.05
14496.0,1.5
14498.0,1.91
14500.0,1.47
14502.0,1.36
14504.0,1.48
14507.0,1.58
14509.0,1.65
14511.0,1.25
14513.0,1.06
14515.0,1.17
14517.0,1.88
14519.0,2.01
14521.0,1.63
14523.0,1.26
14525.0,0.83
14527.0,0.93
14528.0,1.41
14530.0,1.46
14532.0,0.88
14534.0,0.94
14536.0,2.14
14538.0,2.65
14540.0,2.15
14542.0,1.81
14544.0,1.87
14546.0,2.11
14548.0,2.36
14551.0,2.12
14553.0,2.06
14555.0,1.88
14557.0,2.34
14559.0,2.19
14561.0,1.45
14563.0,1.06
14565.0,1.22
14567.0,1.72
14569.0,1.39
14571.0,2.15
14572.0,2.24
14574.0,1.65
14576.0,1.74
14578.0,1.92
14580.0,1.88
14582.0,1.71
14584.0,1.88
14586.0,1.91
14588.0,1.95
14590.0,1.86
14593.0,2.12
14595.0,1.85
14597.0,1.91
14599.0,2.27
14601.0,2.1
14603.0,1.21
14605.0,1.18
14607.0,1.47
14609.0,1.97
14611.0,2.01
14613.0,1.66
14614.0,1.67
14616.0,1.36
14618.0,1.42
14620.0,1.18
14622.0,0.48
14624.0,0.79
14626.0,1.46
14628.0,1.51
14630.0,1.67
14632.0,1.39
14635.0,0.9
14637.0,0.38
14639.0,1.18
14641.0,1.15
14643.0,0.38
14645.0,0.56
14647.0,1.41
14649.0,1.6
14651.0,1.6
14653.0,1.25
14655.0,1.33
14656.0,1.45
14658.0,1.3
14660.0,1.1
14662.0,0.85
14664.0,1.01
14666.0,1.35
14668.0,1.48
14670.0,1.1
14672.0,0.92
14674.0,1.06
14676.0,0.96
14679.0,1.11
14681.0,0.71
14683.0,0.68
14685.0,1.31
14687.0,1.69
14689.0,1.45
14691.0,1.58
14693.0,1.28
14695.0,0.85
14697.0,0.57
14699.0,1.05
14700.0,0.86
14702.0,0.8
14704.0,0.55
14706.0,0.53
14708.0,1.32
14710.0,1.6
14712.0,1.68
14714.0,1.68
14716.0,1.54
14718.0,1.69
14721.0,1.6
14723.0,1.33
14725.0,1.08
14727.0,0.83
14729.0,1.25
14731.0,2.17
14733.0,1.94
14735.0,1.88
14737.0,1.85
14739.0,1.9
14741.0,1.85
14742.0,1.31
14744.0,1.15
14746.0,1.43
14748.0,2.09
14750.0,1.95
14752.0,1.35
14754.0,1.61
14756.0,1.91
14758.0,1.93
14760.0,1.64
14763.0,1.7
14765.0,1.73
14767.0,1.74
14769.0,2.19
14771.0,2.14
14773.0,2.16
14775.0,2.15
14777.0,1.97
14779.0,1.87
14781.0,1.51
14783.0,1.54
14784.0,2.24
14786.0,2.66
14788.0,2.58
14790.0,2.52
14792.0,2.48
14794.0,2.2
14796.0,2.18
14798.0,1.79
14800.0,1.78
14802.0,1.77
14804.0,1.51
14807.0,1.85
14809.0,2.65
14811.0,2.46
14813.0,2.15
14815.0,1.83
14817.0,1.9
14819.0,1.62
14821.0,1.35
14823.0,1.33
14825.0,1.23
14827.0,1.55
14828.0,2.04
14830.0,2.1
14832.0,1.82
14834.0,1.8
14836.0,1.9
14838.0,1.73
14840.0,1.71
14842.0,1.5
14844.0,1.2
14846.0,1.18
14849.0,1.18
14851.0,1.03
14853.0,0.77
14855.0,0.54
14857.0,0.35
14859.0,0.4
14861.0,0.13
14863.0,0.08
14865.0,0.62
14867.0,1.16
14869.0,0.77
14870.0,0.0
14872.0,0.0
14874.0,0.0
14876.0,0.0
14878.0,0.0
14880.0,0.0
14882.0,0.0
14884.0,0.0
14886.0,0.0
14888.0,0.0
14891.0,0.0
14893.0,0.0
14895.0,0.0
14897.0,0.0
14899.0,0.0
14901.0,0.0
14903.0,0.0
14905.0,0.0
14907.0,0.0
14909.0,0.0
14911.0,0.0
14912.0,0.0
14914.0,1.01
14916.0,3.3
14918.0,3.3
14920.0,3.3
14922.0,3.3
14924.0,3.3
14926.0,3.3
14928.0,3.3
14930.0,3.3
14932.0,3.3
14935.0,3.3
14937.0,3.3
14939.0,3.3
14941.0,3.3
14943.0,3.24
14945.0,3.25
14947.0,3.3
14949.0,3.3
14951.0,3.05
14953.0,2.82
14955.0,2.95
14956.0,3.06
14958.0,2.82
14960.0,2.28
14962.0,1.95
14964.0,1.91
14966.0,1.82
14968.0,1.75
14970.0,2.1
14972.0,2.23
14974.0,2.17
14977.0,1.92
14979.0,1.65
14981.0,1.31
14983.0,0.78
14985.0,1.07
14987.0,1.22
14989.0,0.9
14991.0,1.09
14993.0,0.77
14995.0,0.84
14997.0,1.03
14998.0,0.67
15000.0,0.0
15002.0,0.0
15004.0,0.02
15006.0,0.54
15008.0,0.54
15010.0,0.24
15012.0,0.02
15014.0,0.0
15016.0,0.11
15019.0,0.0
15021.0,0.0
15023.0,0.02
15025.0,0.03
15027.0,0.0
15029.0,0.0
15031.0,0.0
15033.0,0.25
15035.0,0.49
15037.0,0.15
15039.0,0.0
15041.0,0.0
15042.0,0.0
15044.0,0.0
15046.0,0.0
15048.0,0.0
15050.0,0.0
15052.0,0.0
15054.0,0.0
15056.0,0.0
15058.0,0.0
15060.0,0.0
15063.0,0.0
15065.0,0.0
15067.0,0.0
15069.0,0.0
15071.0,0.45
15073.0,0.59
15075.0,0.67
15077.0,0.75
15079.0,0.57
15081.0,0.11
15083.0,0.22
15084.0,0.72
15086.0,1.17
15088.0,1.1
15090.0,1.35
15092.0,1.24
15094.0,0.82
15096.0,1.17
15098.0,1.05
15100.0,1.4
15102.0,1.73
15105.0,1.79
15107.0,1.68
15109.0,1.88
15111.0,1.7
15113.0,1.47
15115.0,1.52
15117.0,1.81
15119.0,1.7
15121.0,1.56
15123.0,1.24
15125.0,2.44
15126.0,3.3
15128.0,3.3
15130.0,3.3
15132.0,3.3
15134.0,3.3
15136.0,3.3
15138.0,3.3
15140.0,3.3
15142.0,3.3
15144.0,3.3
15147.0,3.3
15149.0,3.3
15151.0,3.3
15153.0,3.3
15155.0,3.3
15157.0,3.3
15159.0,3.09
15161.0,2.8
15163.0,2.58
15165.0,3.0
15167.0,3.3
15169.0,3.3
15170.0,3.3
15172.0,3.22
15174.0,3.17
15176.0,3.3
15178.0,2.84
15180.0,2.33
15182.0,2.19
15184.0,2.68
15186.0,2.74
15188.0,2.8
15191.0,2.59
15193.0,2.47
15195.0,2.69
15197.0,2.37
15199.0,1.95
15201.0,1.79
15203.0,2.24
15205.0,2.17
15207.0,2.07
15209.0,2.25
15211.0,2.33
15212.0,1.75
15214.0,1.77
15216.0,2.04
15218.0,1.84
15220.0,1.51
15222.0,1.78
15224.0,1.88
15226.0,1.84
15228.0,1.88
15230.0,1.68
15233.0,1.62
15235.0,1.57
15237.0,1.64
15239.0,1.64
15241.0,1.55
15243.0,1.4
15245.0,1.64
15247.0,1.5
15249.0,1.37
15251.0,1.53
15253.0,1.52
15254.0,1.65
15256.0,1.62
15258.0,1.18
15260.0,0.78
15262.0,1.26
15264.0,1.33
15266.0,1.6
15268.0,1.71
15270.0,1.75
15272.0,1.62
15275.0,1.65
15277.0,1.49
15279.0,1.24
15281.0,1.08
15283.0,1.21
15285.0,1.57
15287.0,1.72
15289.0,1.95
15291.0,1.27
15293.0,1.76
15295.0,1.74
15297.0,1.77
15298.0,1.37
15300.0,1.43
15302.0,1.36
15304.0,1.41
15306.0,1.32
15308.0,1.57
15310.0,1.38
15312.0,1.15
15314.0,1.15
15316.0,1.21
15319.0,1.08
15321.0,1.05
15323.0,1.02
15325.0,1.2
15327.0,1.16
15329.0,1.23
15331.0,0.94
15333.0,1.06
15335.0,0.98
15337.0,1.02
15339.0,0.79
15340.0,0.6
15342.0,1.06
15344.0,0.78
15346.0,1.19
15348.0,1.73
15350.0,1.45
15352.0,1.23
15354.0,1.23
15356.0,1.29
15358.0,0.91
15361.0,0.63
15363.0,0.39
15365.0,1.27
15367.0,1.53
15369.0,1.53
15371.0,1.27
15373.0,1.19
15375.0,1.05
15377.0,1.24
15379.0,0.93
15381.0,0.67
15382.0,0.63
15384.0,0.95
15386.0,1.55
15388.0,1.43
15390.0,1.48
15392.0,1.02
15394.0,0.91
15396.0,1.53
15398.0,1.27
15400.0,0.82
15403.0,0.96
15405.0,1.21
15407.0,1.68
15409.0,1.55
15411.0,1.06
15413.0,0.75
15415.0,1.42
15417.0,1.53
15419.0,1.32
15421.0,0.98
15423.0,0.94
15425.0,1.12
15426.0,1.52
15428.0,1.48
15430.0,1.33
15432.0,1.21
15434.0,1.13
15436.0,1.15
15438.0,1.33
15440.0,1.12
15442.0,0.75
15444.0,1.24
15447.0,1.56
15449.0,1.48
15451.0,1.44
15453.0,1.49
15455.0,1.58
15457.0,1.55
15459.0,1.31
15461.0,0.8
15463.0,0.83
15465.0,1.3
15467.0,1.56
15468.0,1.59
15470.0,1.65
15472.0,1.64
15474.0,1.38
15476.0,1.66
15478.0,1.34
15480.0,0.9
15482.0,1.05
15484.0,1.38
15486.0,1.69
15489.0,1.7
15491.0,1.56
15493.0,1.73
15495.0,1.35
15497.0,1.54
15499.0,1.54
15501.0,1.51
15503.0,1.48
15505.0,1.73
15507.0,1.81
15509.0,1.67
15511.0,1.41
15512.0,1.46
15514.0,1.47
15516.0,1.62
15518.0,1.4
15520.0,1.3
15522.0,1.08
15524.0,1.18
15526.0,1.47
15528.0,1.84
15531.0,1.63
15533.0,1.5
15535.0,1.67
15537.0,1.51
15539.0,1.05
15541.0,1.75
15543.0,1.5
15545.0,1.2
15547.0,1.76
15549.0,1.59
15551.0,1.65
15553.0,1.66
15554.0,1.67
15556.0,1.5
15558.0,1.35
15560.0,0.85
15562.0,0.51
15564.0,0.93
15566.0,1.07
15568.0,0.94
15570.0,1.23
15572.0,0.88
15575.0,0.84
15577.0,1.0
15579.0,0.84
15581.0,0.86
15583.0,1.06
15585.0,1.25
15587.0,1.14
15589.0,1.15
15591.0,1.4
15593.0,1.25
15595.0,1.55
15596.0,1.77
15598.0,1.4
15600.0,0.99
15602.0,1.27
15604.0,1.48
15606.0,1.61
15608.0,1.51
15610.0,0.95
15612.0,0.37
15614.0,0.72
15617.0,1.21
15619.0,1.56
15621.0,1.57
15623.0,1.12
15625.0,1.2
15627.0,1.85
15629.0,1.46
15631.0,0.3
15633.0,0.78
15635.0,1.49
15637.0,1.99
15639.0,1.74
15640.0,1.51
15642.0,1.3
15644.0,1.43
15646.0,1.42
15648.0,1.24
15650.0,1.28
15652.0,1.41
15654.0,1.33
15656.0,1.87
15659.0,1.25
15661.0,0.98
15663.0,0.75
15665.0,1.16
15667.0,2.28
15669.0,2.01
15671.0,1.67
15673.0,1.8
15675.0,1.83
15677.0,1.56
15679.0,1.09
15681.0,0.63
15682.0,0.67
15684.0,1.66
15686.0,2.07
15688.0,1.56
15690.0,1.83
15692.0,2.18
15694.0,2.27
15696.0,2.07
15698.0,1.42
15700.0,1.57
15703.0,1.58
15705.0,1.65
15707.0,1.09
15709.0,1.4
15711.0,2.24
15713.0,1.72
15715.0,0.96
15717.0,1.15
15719.0,1.43
15721.0,1.25
15723.0,1.27
15724.0,1.75
15726.0,1.83
15728.0,1.74
15730.0,1.52
15732.0,1.35
15734.0,1.31
15736.0,0.8
15738.0,0.95
15740.0,1.32
15742.0,0.89
15745.0,1.04
15747.0,1.41
15749.0,1.15
15751.0,1.47
15753.0,1.78
15755.0,2.02
15757.0,1.92
15759.0,1.4
15761.0,1.21
15763.0,1.13
15765.0,0.95
15767.0,1.59
15768.0,2.01
15770.0,1.4
15772.0,1.14
15774.0,1.71
15776.0,1.85
15778.0,1.74
15780.0,1.4
15782.0,1.46
15784.0,1.54
15787.0,1.76
15789.0,1.91
15791.0,1.92
15793.0,1.68
15795.0,1.66
15797.0,1.67
15799.0,2.07
15801.0,1.96
15803.0,1.79
15805.0,2.0
15807.0,1.86
15809.0,1.73
15810.0,1.81
15812.0,1.65
15814.0,1.78
15816.0,1.46
15818.0,1.77
15820.0,2.02
15822.0,1.88
15824.0,1.86
15826.0,1.96
15828.0,1.9
15831.0,1.7
15833.0,1.57
15835.0,1.41
15837.0,1.07
15839.0,0.91
15841.0,1.82
15843.0,1.84
15845.0,1.86
15847.0,1.92
15849.0,1.38
15851.0,1.6
15852.0,2.3
15854.0,2.23
15856.0,2.1
15858.0,1.55
15860.0,1.23
15862.0,1.31
15864.0,1.8
15866.0,2.15
15868.0,1.95
15870.0,1.81
15873.0,1.76
15875.0,1.62
15877.0,1.84
15879.0,1.69
15881.0,1.55
15883.0,1.32
15885.0,1.49
15887.0,1.93
15889.0,2.24
15891.0,1.67
15893.0,0.0
15895.0,0.0
15896.0,0.0
15898.0,0.0
15900.0,0.0
15902.0,0.0
15904.0,0.0
15906.0,0.0
15908.0,0.0
15910.0,0.0
15912.0,0.0
15915.0,0.0
15917.0,0.0
15919.0,0.0
15921.0,0.0
15923.0,0.0
15925.0,0.0
15927.0,0.0
15929.0,0.0
15931.0,0.07
15933.0,0.13
15935.0,0.25
15937.0,0.1
15938.0,0.26
15940.0,0.0
15942.0,0.12
15944.0,0.72
15946.0,1.15
15948.0,1.05
15950.0,0.9
15952.0,1.18
15954.0,1.85
15956.0,1.86
15959.0,1.61
15961.0,1.22
15963.0,1.3
15965.0,1.4
15967.0,1.54
15969.0,2.03
15971.0,1.99
15973.0,2.08
15975.0,1.92
15977.0,1.77
15979.0,1.41
15980.0,1.61
15982.0,1.96
15984.0,1.84
15986.0,2.15
15988.0,2.11
15990.0,1.85
15992.0,1.8
15994.0,1.73
15996.0,2.05
15998.0,1.78
16001.0,1.67
16003.0,1.78
16005.0,2.04
16007.0,2.26
16009.0,2.09
16011.0,1.76
16013.0,1.64
16015.0,1.59
16017.0,1.75
16019.0,1.38
16021.0,1.31
16023.0,1.12
16024.0,1.07
16026.0,1.44
16028.0,1.6
16030.0,1.41
16032.0,1.75
16034.0,1.55
16036.0,1.43
16038.0,1.08
16040.0,1.34
16043.0,1.25
16045.0,1.39
16047.0,1.61
16049.0,1.59
16051.0,1.19
16053.0,1.06
16055.0,1.69
16057.0,1.69
16059.0,1.47
16061.0,0.75
16063.0,1.09
16065.0,1.33
16066.0,1.41
16068.0,1.55
16070.0,1.28
16072.0,1.31
16074.0,1.29
16076.0,1.18
16078.0,1.32
16080.0,1.28
16082.0,1.26
16084.0,1.4
16087.0,1.65
16089.0,1.82
16091.0,2.04
16093.0,1.99
16095.0,1.79
16097.0,1.85
16099.0,1.7
16101.0,1.48
16103.0,1.59
16105.0,1.61
16107.0,1.87
16109.0,1.54
16110.0,1.48
16112.0,1.23
16114.0,1.52
16116.0,1.52
16118.0,1.26
16120.0,0.96
16122.0,1.28
16124.0,1.48
16126.0,1.65
16129.0,1.48
16131.0,1.32
16133.0,1.58
16135.0,1.42
16137.0,1.43
16139.0,1.38
16141.0,1.35
16143.0,1.11
16145.0,1.27
16147.0,1.33
16149.0,1.46
16151.0,1.43
16152.0,1.33
16154.0,1.38
16156.0,0.75
16158.0,1.05
16160.0,1.35
16162.0,1.4
16164.0,1.48
16166.0,1.76
16168.0,1.8
16171.0,1.49
16173.0,1.56
16175.0,1.85
16177.0,1.84
16179.0,1.46
16181.0,1.31
16183.0,1.58
16185.0,1.83
16187.0,2.01
16189.0,1.89
16191.0,1.93
16193.0,1.86
16194.0,1.93
16196.0,2.05
16198.0,1.85
16200.0,1.79
16202.0,1.92
16204.0,1.93
16206.0,1.74
16208.0,1.61
16210.0,1.77
16212.0,2.27
16215.0,2.12
16217.0,2.06
16219.0,1.72
16221.0,1.74
16223.0,1.82
16225.0,1.96
16227.0,2.13
16229.0,1.88
16231.0,1.65
16233.0,2.24
16235.0,2.32
16237.0,2.12
16238.0,1.92
16240.0,1.58
16242.0,1.62
16244.0,1.86
16246.0,2.08
16248.0,1.94
16250.0,1.88
16252.0,1.91
16254.0,2.01
16257.0,1.95
16259.0,1.56
16261.0,1.57
16263.0,1.53
16265.0,1.76
16267.0,2.07
16269.0,2.15
16271.0,1.92
16273.0,1.94
16275.0,2.08
16277.0,1.93
16279.0,1.61
16280.0,1.35
16282.0,1.71
16284.0,1.9
16286.0,1.92
16288.0,1.81
16290.0,1.71
16292.0,1.71
16294.0,1.95
16296.0,1.81
16299.0,1.68
16301.0,1.34
16303.0,1.75
16305.0,1.92
16307.0,1.84
16309.0,1.65
16311.0,1.65
16313.0,1.84
16315.0,1.9
16317.0,1.89
16319.0,1.64
16321.0,1.41
16322.0,1.6
16324.0,1.75
16326.0,1.81
16328.0,1.49
16330.0,1.3
16332.0,1.39
16334.0,1.63
16336.0,1.69
16338.0,1.55
16340.0,1.45
16343.0,1.28
16345.0,1.4
16347.0,1.99
16349.0,2.24
16351.0,2.27
16353.0,2.25
16355.0,2.01
16357.0,1.96
16359.0,1.72
16361.0,1.76
16363.0,1.75
16365.0,1.71
16366.0,1.98
16368.0,2.09
16370.0,2.21
16372.0,2.14
16374.0,1.92
16376.0,1.72
16378.0,1.39
16380.0,1.24
16382.0,1.42
16385.0,1.65
16387.0,1.95
16389.0,1.74
16391.0,1.58
16393.0,1.62
16395.0,1.79
16397.0,1.77
16399.0,1.13
16401.0,1.07
16403.0,1.51
16405.0,1.38
16407.0,1.35
16408.0,1.65
16410.0,1.77
16412.0,1.66
16414.0,1.65
16416.0,1.45
16418.0,1.21
16420.0,1.26
16422.0,1.45
16424.0,1.27
16427.0,1.16
16429.0,1.36
16431.0,1.35
16433.0,1.44
16435.0,1.23
16437.0,1.01
16439.0,1.22
16441.0,1.28
16443.0,1.15
16445.0,1.05
16447.0,1.59
16449.0,1.53
16450.0,1.44
16452.0,1.55
16454.0,1.39
16456.0,1.26
16458.0,0.95
16460.0,0.73
16462.0,0.96
16464.0,1.01
16466.0,0.89
16468.0,0.93
16471.0,1.51
16473.0,1.38
16475.0,1.16
16477.0,0.62
16479.0,0.18
16481.0,0.27
16483.0,0.44
16485.0,0.53
16487.0,0.56
16489.0,0.54
16491.0,0.12
16493.0,0.0
16494.0,0.0
16496.0,0.28
16498.0,0.45
16500.0,0.0
16502.0,0.0
16504.0,0.02
16506.0,0.0
16508.0,0.0
16510.0,0.0
16513.0,0.03
16515.0,0.0
16517.0,0.0
16519.0,0.06
16521.0,0.16
16523.0,0.38
16525.0,0.34
16527.0,0.15
16529.0,0.02
16531.0,0.72
16533.0,0.82
16535.0,0.89
16536.0,0.88
16538.0,0.94
16540.0,1.03
16542.0,0.46
16544.0,0.88
16546.0,1.26
16548.0,1.34
16550.0,1.19
16552.0,1.4
16555.0,1.21
16557.0,1.59
16559.0,1.47
16561.0,1.15
16563.0,1.34
16565.0,1.75
16567.0,2.29
16569.0,2.65
16571.0,2.66
16573.0,3.08
16575.0,2.54
16577.0,2.06
16578.0,1.91
16580.0,2.57
16582.0,3.06
16584.0,3.27
16586.0,3.3
16588.0,2.86
16590.0,2.32
16592.0,2.57
16594.0,2.58
16596.0,2.56
16599.0,2.49
16601.0,2.22
16603.0,2.69
16605.0,3.08
16607.0,2.79
16609.0,2.88
16611.0,2.85
16613.0,2.56
16615.0,2.71
16617.0,1.77
16619.0,1.91
16621.0,2.56
16622.0,2.92
16624.0,2.42
16626.0,2.85
16628.0,3.26
16630.0,2.6
16632.0,2.27
16634.0,2.48
16636.0,2.67
16638.0,2.57
16641.0,2.15
16643.0,2.02
16645.0,2.14
16647.0,2.32
16649.0,2.45
16651.0,1.97
16653.0,2.1
16655.0,2.04
16657.0,1.96
16659.0,1.93
16661.0,1.98
16663.0,1.89
16664.0,1.24
16666.0,2.16
16668.0,3.0
16670.0,2.69
16672.0,2.56
16674.0,2.27
16676.0,1.67
16678.0,1.63
16680.0,1.62
16683.0,1.8
16685.0,1.39
16687.0,2.02
16689.0,2.58
16691.0,2.06
16693.0,2.0
16695.0,2.04
16697.0,1.74
16699.0,1.72
16701.0,1.49
16703.0,1.62
16705.0,1.72
16706.0,1.78
16708.0,2.04
16710.0,3.3
16712.0,3.3
16714.0,3.3
16716.0,3.3
16718.0,3.3
16720.0,3.3
16722.0,3.3
16724.0,3.3
16727.0,3.3
16729.0,3.3
16731.0,3.3
16733.0,3.3
16735.0,3.3
16737.0,3.06
16739.0,3.3
16741.0,3.3
16743.0,3.28
16745.0,3.3
16747.0,3.15
16749.0,3.14
16750.0,3.27
16752.0,2.97
16754.0,2.74
16756.0,2.31
16758.0,1.65
16760.0,1.72
16762.0,1.14
16764.0,1.47
16766.0,1.65
16769.0,1.73
16771.0,1.84
16773.0,1.67
16775.0,1.17
16777.0,0.83
16779.0,1.14
16781.0,1.25
16783.0,0.96
16785.0,0.97
16787.0,1.06
16789.0,0.75
16791.0,0.7
16792.0,0.89
16794.0,0.92
16796.0,1.08
16798.0,0.78
16800.0,1.11
16802.0,1.04
16804.0,1.35
16806.0,1.92
16808.0,1.86
16811.0,1.58
16813.0,1.5
16815.0,1.75
16817.0,1.81
16819.0,1.45
16821.0,1.42
16823.0,1.79
16825.0,1.55
16827.0,1.58
16829.0,1.62
16831.0,1.51
16833.0,1.56
16834.0,1.54
16836.0,1.0
16838.0,1.3
16840.0,1.24
16842.0,1.23
16844.0,1.58
16846.0,1.54
16848.0,1.21
16850.0,1.3
16852.0,1.2
16855.0,0.99
16857.0,0.91
16859.0,0.85
16861.0,0.66
16863.0,0.37
16865.0,1.17
16867.0,1.57
16869.0,1.26
16871.0,1.01
16873.0,1.21
16875.0,1.6
16877.0,1.33
16878.0,0.85
16880.0,0.81
16882.0,1.04
16884.0,1.09
16886.0,0.78
16888.0,0.95
16890.0,0.97
16892.0,0.88
16894.0,0.94
16897.0,0.65
16899.0,0.41
16901.0,0.93
16903.0,1.33
16905.0,1.53
16907.0,1.39
16909.0,0.85
16911.0,0.85
16913.0,1.41
16915.0,1.52
16917.0,1.27
16919.0,0.68
16920.0,0.78
16922.0,1.25
16924.0,1.26
16926.0,0.88
16928.0,1.27
16930.0,0.9
16932.0,1.5
16934.0,1.68
16936.0,1.33
16939.0,1.25
16941.0,1.34
16943.0,1.07
16945.0,0.92
16947.0,1.29
16949.0,1.64
16951.0,1.55
16953.0,1.55
16955.0,1.35
16957.0,0.78
16959.0,0.7
16961.0,1.0
16963.0,0.78
16964.0,1.18
16966.0,1.69
16968.0,1.55
16970.0,1.3
16972.0,1.25
16974.0,1.21
16976.0,1.4
16978.0,0.83
16980.0,1.11
16983.0,1.19
16985.0,1.11
16987.0,1.35
16989.0,1.56
16991.0,1.57
16993.0,1.38
16995.0,1.38
16997.0,1.11
16999.0,0.99
17001.0,1.03
17003.0,1.3
17005.0,1.02
17006.0,0.68
17008.0,0.83
17010.0,1.44
17012.0,1.57
17014.0,1.41
17016.0,1.1
17018.0,0.98
17020.0,0.7
17022.0,0.87
17025.0,1.26
17027.0,1.43
17029.0,1.34
17031.0,1.15
17033.0,1.27
17035.0,1.53
17037.0,1.25
17039.0,0.92
17041.0,0.62
17043.0,0.78
17045.0,1.49
17047.0,1.44
17048.0,1.41
17050.0,1.42
17052.0,1.25
17054.0,1.12
17056.0,1.09
17058.0,0.7
17060.0,0.45
17062.0,1.23
17064.0,1.74
17067.0,1.41
17069.0,1.01
17071.0,1.32
17073.0,1.3
17075.0,1.3
17077.0,0.81
17079.0,0.71
17081.0,0.7
17083.0,0.91
17085.0,1.04
17087.0,1.51
17089.0,1.44
17091.0,1.47
17092.0,1.39
17094.0,1.25
17096.0,0.93
17098.0,0.93
17100.0,1.16
17102.0,1.11
17104.0,1.33
17106.0,1.46
17108.0,1.39
17111.0,1.18
17113.0,1.4
17115.0,1.35
17117.0,0.8
17119.0,1.08
17121.0,1.27
17123.0,0.9
17125.0,1.25
17127.0,1.34
17129.0,1.38
17131.0,1.23
17133.0,1.29
17134.0,0.92
17136.0,0.68
17138.0,1.18
17140.0,1.5
17142.0,1.25
17144.0,1.42
17146.0,1.59
17148.0,1.58
17150.0,1.49
17153.0,1.49
17155.0,1.38
17157.0,0.85
17159.0,1.03
17161.0,1.22
17163.0,1.47
17165.0,0.92
17167.0,0.92
17169.0,1.54
17171.0,2.47
17173.0,2.29
17175.0,1.75
17176.0,1.39
17178.0,1.21
17180.0,1.25
17182.0,1.55
17184.0,1.87
17186.0,1.98
17188.0,1.74
17190.0,1.74
17192.0,1.5
17195.0,1.81
17197.0,1.72
17199.0,1.31
17201.0,1.22
17203.0,1.52
17205.0,1.76
17207.0,1.23
17209.0,1.45
17211.0,1.62
17213.0,1.84
17215.0,1.78
17217.0,1.39
17219.0,1.12
17220.0,1.4
17222.0,1.33
17224.0,1.52
17226.0,1.82
17228.0,1.68
17230.0,1.3
17232.0,1.11
17234.0,1.79
17236.0,1.71
17239.0,1.51
17241.0,1.31
17243.0,1.41
17245.0,1.71
17247.0,1.79
17249.0,1.3
17251.0,1.41
17253.0,1.65
17255.0,1.67
17257.0,1.43
17259.0,1.25
17261.0,1.42
17262.0,1.52
17264.0,1.46
17266.0,1.55
17268.0,1.84
17270.0,1.92
17272.0,1.75
17274.0,1.62
17276.0,1.2
17278.0,1.03
17281.0,1.28
17283.0,1.29
17285.0,0.99
17287.0,1.21
17289.0,1.82
17291.0,1.73
17293.0,1.49
17295.0,1.23
17297.0,1.01
17299.0,0.9
17301.0,0.92
17303.0,1.22
17304.0,1.87
17306.0,1.83
17308.0,1.59
17310.0,1.6
17312.0,1.38
17314.0,1.3
17316.0,0.96
17318.0,1.08
17320.0,2.04
17323.0,2.02
17325.0,1.92
17327.0,1.87
17329.0,1.56
17331.0,1.6
17333.0,1.36
17335.0,1.04
17337.0,1.75
17339.0,1.83
17341.0,1.67
17343.0,1.68
17345.0,1.62
17347.0,1.13
17348.0,1.15
17350.0,2.12
17352.0,2.12
17354.0,1.95
17356.0,1.49
17358.0,1.12
17360.0,1.38
17362.0,1.4
17364.0,1.76
17367.0,1.83
17369.0,1.51
17371.0,1.61
17373.0,1.51
17375.0,1.05
17377.0,1.18
17379.0,1.28
17381.0,1.28
17383.0,1.57
17385.0,1.78
17387.0,1.84
17389.0,1.71
17390.0,1.54
17392.0,1.5
17394.0,1.52
17396.0,1.08
17398.0,1.03
17400.0,1.01
17402.0,1.27
17404.0,1.46
17406.0,1.74
17409.0,1.56
17411.0,1.62
17413.0,1.68
17415.0,1.5
17417.0,1.38
17419.0,1.14
17421.0,1.07
17423.0,1.33
17425.0,1.74
17427.0,1.52
17429.0,1.45
17431.0,1.4
17432.0,1.35
17434.0,1.39
17436.0,1.25
17438.0,0.69
17440.0,0.68
17442.0,0.99
17444.0,1.52
17446.0,1.49
17448.0,1.53
17451.0,1.47
17453.0,1.59
17455.0,1.1
17457.0,0.75
17459.0,1.06
17461.0,1.46
17463.0,1.4
17465.0,1.41
17467.0,1.18
17469.0,0.99
17471.0,0.92
17473.0,1.04
17475.0,1.29
17476.0,0.8
17478.0,0.66
17480.0,1.02
17482.0,1.01
17484.0,1.02
17486.0,1.06
17488.0,0.92
17490.0,0.66
17492.0,1.34
17495.0,1.4
17497.0,1.16
17499.0,1.02
17501.0,1.22
17503.0,1.4
17505.0,1.72
17507.0,1.52
17509.0,1.06
17511.0,0.75
17513.0,0.78
17515.0,1.18
17517.0,1.62
17518.0,1.36
17520.0,1.51
17522.0,1.46
17524.0,1.71
17526.0,1.78
17528.0,1.39
17530.0,1.21
17532.0,1.45
17534.0,1.63
17537.0,1.29
17539.0,1.31
17541.0,1.17
17543.0,1.31
17545.0,1.42
17547.0,1.08
17549.0,1.07
17551.0,1.2
17553.0,1.27
17555.0,1.41
17557.0,0.88
17559.0,1.03
17560.0,1.4
17562.0,1.29
17564.0,1.35
17566.0,1.33
17568.0,1.49
17570.0,1.92
17572.0,1.77
17574.0,1.06
17576.0,0.93
17579.0,1.38
17581.0,0.93
17583.0,1.53
17585.0,2.07
17587.0,1.86
17589.0,1.97
17591.0,1.49
17593.0,1.33
17595.0,1.22
17597.0,0.34
17599.0,0.85
17601.0,1.43
17603.0,1.9
17604.0,2.28
17606.0,1.95
17608.0,1.83
17610.0,1.98
17612.0,1.51
17614.0,1.11
17616.0,1.12
17618.0,1.39
17620.0,1.93
17623.0,1.83
17625.0,1.96
17627.0,1.38
17629.0,1.36
17631.0,1.45
17633.0,1.5
17635.0,1.28
17637.0,0.92
17639.0,0.5
17641.0,0.81
17643.0,1.65
17645.0,1.92
17646.0,1.79
17648.0,1.86
17650.0,1.74
17652.0,1.64
17654.0,1.68
17656.0,0.77
17658.0,0.14
17660.0,1.95
17662.0,2.02
17665.0,1.67
17667.0,1.58
17669.0,1.88
17671.0,1.68
17673.0,1.69
17675.0,1.47
17677.0,1.07
17679.0,0.95
17681.0,1.18
17683.0,1.23
17685.0,1.36
17687.0,1.51
17688.0,1.64
17690.0,1.56
17692.0,1.03
17694.0,1.46
17696.0,1.47
17698.0,1.0
17700.0,1.21
17702.0,1.62
17704.0,1.64
17707.0,1.28
17709.0,1.6
17711.0,0.87
17713.0,1.17
17715.0,1.65
17717.0,1.35
17719.0,0.63
17721.0,0.37
17723.0,1.16
17725.0,1.5
17727.0,1.13
17729.0,0.96
17731.0,1.16
17732.0,0.71
17734.0,0.6
17736.0,0.69
17738.0,0.81
17740.0,0.73
17742.0,1.13
17744.0,1.11
17746.0,1.02
17748.0,0.57
17751.0,0.51
17753.0,0.91
17755.0,1.11
17757.0,0.59
17759.0,0.52
17761.0,0.89
17763.0,1.11
17765.0,1.64
17767.0,1.44
17769.0,0.55
17771.0,1.3
17773.0,1.6
17774.0,1.47
17776.0,1.49
17778.0,1.0
17780.0,1.32
17782.0,1.45
17784.0,1.48
17786.0,1.61
17788.0,1.28
17790.0,0.93
17793.0,1.19
17795.0,1.51
17797.0,2.05
17799.0,1.81
17801.0,1.95
17803.0,1.89
17805.0,1.92
17807.0,1.64
17809.0,1.51
17811.0,1.54
17813.0,1.49
17815.0,1.64
17816.0,1.29
17818.0,0.83
17820.0,1.42
17822.0,1.3
17824.0,1.53
17826.0,2.02
17828.0,1.86
17830.0,1.93
17832.0,1.95
17835.0,1.55
17837.0,1.33
17839.0,1.18
17841.0,1.25
17843.0,1.93
17845.0,2.46
17847.0,1.89
17849.0,2.15
17851.0,2.35
17853.0,2.34
17855.0,1.97
17857.0,1.7
17859.0,1.81
17860.0,2.21
17862.0,2.23
17864.0,2.29
17866.0,2.46
17868.0,2.55
17870.0,2.95
17872.0,2.97
17874.0,2.72
17876.0,2.39
17879.0,2.32
17881.0,2.69
17883.0,2.86
17885.0,2.69
17887.0,2.67
17889.0,2.86
17891.0,3.27
17893.0,3.12
17895.0,3.08
17897.0,2.92
17899.0,2.83
17901.0,2.58
17902.0,2.84
17904.0,2.69
17906.0,2.36
17908.0,2.69
17910.0,2.8
17912.0,2.67
17914.0,2.58
17916.0,2.33
17918.0,2.08
17921.0,1.71
17923.0,1.78
17925.0,2.07
17927.0,2.12
17929.0,1.72
17931.0,1.71
17933.0,2.04
17935.0,2.19
17937.0,1.96
17939.0,1.8
17941.0,1.67
17943.0,1.77
17945.0,2.12
17946.0,1.78
17948.0,1.56
17950.0,2.24
17952.0,2.24
17954.0,1.88
17956.0,1.58
17958.0,1.16
17960.0,1.67
17963.0,2.05
17965.0,2.3
17967.0,2.09
17969.0,1.94
17971.0,2.0
17973.0,1.79
17975.0,1.55
17977.0,1.55
17979.0,1.64
17981.0,1.65
17983.0,1.85
17985.0,1.89
17987.0,1.91
17988.0,1.32
17990.0,1.2
17992.0,1.38
17994.0,1.68
17996.0,1.43
17998.0,1.41
18000.0,1.69
18002.0,1.01
18004.0,1.51
18007.0,1.83
18009.0,1.46
18011.0,1.53
18013.0,1.45
18015.0,1.08
18017.0,0.64
18019.0,1.05
18021.0,1.62
18023.0,1.36
18025.0,1.49
18027.0,1.56
18029.0,1.47
18030.0,1.35
18032.0,1.25
18034.0,1.01
18036.0,1.03
18038.0,0.67
18040.0,0.78
18042.0,1.01
18044.0,1.01
18046.0,0.84
18049.0,0.6
18051.0,0.83
18053.0,1.18
18055.0,0.89
18057.0,0.52
18059.0,0.41
18061.0,0.37
18063.0,0.65
18065.0,0.7
18067.0,0.42
18069.0,0.0
18071.0,0.79
18073.0,0.75
18074.0,0.12
18076.0,0.0
18078.0,0.14
18080.0,0.35
18082.0,0.45
18084.0,0.47
18086.0,0.33
18088.0,0.0
18091.0,0.0
18093.0,0.04
18095.0,0.0
18097.0,0.0
18099.0,0.0
18101.0,0.0
18103.0,0.31
18105.0,0.18
18107.0,0.0
18109.0,0.0
18111.0,0.0
18113.0,0.25
18115.0,0.23
18116.0,0.36
18118.0,0.19
18120.0,0.0
18122.0,0.35
18124.0,0.57
18126.0,0.36
18128.0,0.12
18130.0,0.11
18132.0,0.33
18135.0,0.55
18137.0,0.0
18139.0,0.0
18141.0,0.0
18143.0,0.87
18145.0,0.98
18147.0,0.62
18149.0,0.17
18151.0,0.7
18153.0,1.27
18155.0,1.02
18157.0,0.33
18158.0,0.57
18160.0,0.95
18162.0,0.88
18164.0,0.6
18166.0,1.43
18168.0,1.97
18170.0,1.98
18172.0,1.79
18174.0,1.43
18177.0,1.34
18179.0,1.4
18181.0,1.58
18183.0,1.59
18185.0,2.06
18187.0,1.92
18189.0,1.73
18191.0,1.75
18193.0,1.45
18195.0,1.15
18197.0,1.98
18199.0,2.05
18201.0,2.33
18202.0,2.56
18204.0,2.7
18206.0,2.41
18208.0,2.03
18210.0,2.3
18212.0,2.55
18214.0,2.01
18216.0,2.15
18219.0,2.25
18221.0,2.26
18223.0,2.36
18225.0,2.36
18227.0,2.38
18229.0,2.39
18231.0,2.39
18233.0,2.39
18235.0,2.18
18237.0,2.12
18239.0,2.3
18241.0,2.42
18243.0,2.48
18244.0,2.63
18246.0,2.45
18248.0,2.25
18250.0,2.69
18252.0,2.65
18254.0,2.28
18256.0,1.99
18258.0,2.14
18260.0,2.3
18263.0,2.27
18265.0,2.6
18267.0,2.3
18269.0,2.28
18271.0,2.56
18273.0,2.23
18275.0,1.63
18277.0,1.55
18279.0,1.5
18281.0,2.13
18283.0,2.61
18285.0,2.5
18287.0,2.37
18288.0,1.93
18290.0,1.75
18292.0,1.92
18294.0,1.64
18296.0,1.27
18298.0,1.55
18300.0,1.97
18302.0,2.37
18305.0,2.33
18307.0,1.91
18309.0,1.97
18311.0,1.93
18313.0,1.9
18315.0,1.87
18317.0,1.63
18319.0,1.65
18321.0,1.87
18323.0,1.92
18325.0,1.91
18327.0,1.87
18329.0,1.51
18330.0,1.59
18332.0,2.05
18334.0,1.48
18336.0,0.92
18338.0,1.75
18340.0,1.85
18342.0,2.05
18344.0,1.78
18347.0,1.26
18349.0,1.75
18351.0,2.1
18353.0,2.0
18355.0,1.84
18357.0,1.57
18359.0,1.54
18361.0,1.64
18363.0,1.86
18365.0,1.93
18367.0,1.72
18369.0,1.92
18371.0,1.98
18372.0,1.86
18374.0,1.31
18376.0,0.89
18378.0,1.36
18380.0,1.98
18382.0,1.97
18384.0,1.82
18386.0,1.66
18388.0,1.53
18391.0,1.67
18393.0,1.66
18395.0,1.15
18397.0,1.27
18399.0,1.11
18401.0,1.23
18403.0,1.86
18405.0,2.15
18407.0,1.73
18409.0,1.7
18411.0,1.82
18413.0,1.74
18415.0,1.42
18416.0,1.35
18418.0,1.03
18420.0,1.66
18422.0,2.04
18424.0,1.92
18426.0,1.61
18428.0,1.65
18430.0,1.65
18433.0,1.36
18435.0,1.43
18437.0,1.53
18439.0,1.53
18441.0,1.6
18443.0,1.74
18445.0,1.65
18447.0,1.75
18449.0,1.7
18451.0,1.39
18453.0,1.5
18455.0,1.24
18457.0,1.17
18458.0,1.21
18460.0,1.34
18462.0,1.82
18464.0,1.89
18466.0,1.66
18468.0,1.35
18470.0,1.56
18472.0,1.73
18475.0,1.29
18477.0,1.06
18479.0,1.05
18481.0,1.17
18483.0,1.19
18485.0,0.92
18487.0,1.49
18489.0,1.51
18491.0,1.43
18493.0,1.68
18495.0,1.21
18497.0,1.26
18499.0,1.34
18500.0,1.38
18502.0,1.55
18504.0,1.61
18506.0,1.52
18508.0,1.15
18510.0,1.08
18512.0,1.18
18514.0,1.08
18516.0,1.29
18519.0,1.1
18521.0,1.24
18523.0,1.55
18525.0,1.33
18527.0,1.41
18529.0,1.44
18531.0,1.28
18533.0,1.49
18535.0,1.16
18537.0,1.05
18539.0,0.76
18541.0,1.37
18543.0,1.84
18544.0,1.88
18546.0,1.82
18548.0,1.67
18550.0,1.54
18552.0,1.32
18554.0,0.89
18556.0,0.6
18558.0,0.97
18561.0,1.68
18563.0,2.45
18565.0,2.36
18567.0,2.09
18569.0,2.0
18571.0,2.0
18573.0,1.79
18575.0,1.2
18577.0,0.71
18579.0,0.83
18581.0,1.22
18583.0,2.02
18585.0,1.92
18586.0,1.68
18588.0,1.89
18590.0,1.63
18592.0,1.52
18594.0,1.55
18596.0,1.44
18598.0,1.28
18600.0,1.55
18603.0,1.63
18605.0,1.54
18607.0,1.17
18609.0,1.35
18611.0,1.27
18613.0,1.32
18615.0,0.95
18617.0,0.71
18619.0,1.24
18621.0,1.71
18623.0,1.7
18625.0,1.64
18627.0,1.77
18628.0,1.63
18630.0,1.32
18632.0,1.64
18634.0,1.57
18636.0,1.1
18638.0,1.07
18640.0,1.42
18642.0,1.92
18644.0,1.69
18647.0,1.36
18649.0,1.63
18651.0,1.93
18653.0,1.34
18655.0,1.05
18657.0,1.19
18659.0,1.12
18661.0,1.27
18663.0,1.28
18665.0,1.46
18667.0,1.56
18669.0,1.53
18671.0,0.67
18672.0,0.9
18674.0,1.25
18676.0,0.98
18678.0,1.4
18680.0,1.08
18682.0,0.85
18684.0,1.94
18686.0,2.08
18689.0,1.28
18691.0,0.74
18693.0,1.54
18695.0,1.78
18697.0,1.35
18699.0,1.13
18701.0,1.35
18703.0,1.64
18705.0,1.45
18707.0,1.11
18709.0,1.17
18711.0,1.35
18713.0,1.28
18714.0,0.92
18716.0,0.91
18718.0,1.14
18720.0,1.75
18722.0,1.88
18724.0,1.86
18726.0,1.64
18728.0,0.94
18731.0,0.99
18733.0,1.28
18735.0,1.05
18737.0,0.81
18739.0,1.38
18741.0,1.67
18743.0,1.69
18745.0,1.64
18747.0,1.11
18749.0,0.98
18751.0,1.29
18753.0,1.36
18755.0,0.98
18756.0,0.72
18758.0,0.98
18760.0,1.19
18762.0,0.94
18764.0,0.6
18766.0,0.53
18768.0,1.78
18770.0,1.99
18772.0,1.34
18775.0,0.96
18777.0,0.95
18779.0,0.81
18781.0,1.27
18783.0,1.5
18785.0,1.54
18787.0,1.46
18789.0,1.31
18791.0,1.18
18793.0,1.27
18795.0,1.47
18797.0,1.1
18799.0,1.21
18800.0,1.38
18802.0,1.77
18804.0,1.85
18806.0,1.66
18808.0,1.56
18810.0,1.73
18812.0,1.53
18814.0,1.23
18817.0,1.14
18819.0,1.36
18821.0,1.69
18823.0,1.86
18825.0,1.81
18827.0,1.74
18829.0,1.84
18831.0,1.67
18833.0,1.62
18835.0,1.24
18837.0,1.79
18839.0,2.33
18841.0,2.25
18842.0,2.28
18844.0,2.12
18846.0,1.9
18848.0,2.1
18850.0,2.18
18852.0,2.15
18854.0,1.97
18856.0,1.51
18859.0,1.65
18861.0,2.07
18863.0,2.41
18865.0,2.22
18867.0,1.78
18869.0,1.65
18871.0,1.37
18873.0,2.1
18875.0,2.53
18877.0,2.15
18879.0,2.09
18881.0,2.45
18883.0,2.58
18884.0,2.53
18886.0,2.29
18888.0,1.75
18890.0,2.22
18892.0,2.1
18894.0,1.83
18896.0,1.77
18898.0,1.75
18900.0,2.1
18903.0,2.18
18905.0,1.81
18907.0,1.7
18909.0,1.82
18911.0,2.25
18913.0,2.37
18915.0,2.05
18917.0,1.82
18919.0,1.65
18921.0,1.49
18923.0,1.66
18925.0,2.05
18927.0,2.02
18928.0,1.95
18930.0,1.79
18932.0,1.65
18934.0,1.33
18936.0,0.9
18938.0,1.19
18940.0,1.65
18942.0,1.98
18945.0,1.63
18947.0,1.44
18949.0,1.74
18951.0,2.1
18953.0,1.84
18955.0,1.35
18957.0,1.05
18959.0,0.95
18961.0,1.44
18963.0,1.74
18965.0,1.76
18967.0,1.63
18969.0,1.57
18970.0,1.67
18972.0,1.42
18974.0,0.87
18976.0,0.9
18978.0,1.17
18980.0,1.63
18982.0,1.88
18984.0,1.49
18987.0,1.27
18989.0,1.07
18991.0,1.34
18993.0,1.09
18995.0,0.76
18997.0,0.86
18999.0,1.09
19001.0,1.16
19003.0,1.04
19005.0,0.89
19007.0,0.55
19009.0,0.92
19011.0,1.16
19012.0,1.33
19014.0,1.33
19016.0,1.11
19018.0,1.18
19020.0,1.28
19022.0,1.15
19024.0,0.99
19026.0,1.21
19028.0,1.23
19031.0,1.29
19033.0,1.09
19035.0,0.73
19037.0,1.05
19039.0,1.06
19041.0,0.92
19043.0,1.4
19045.0,1.29
19047.0,1.11
19049.0,1.51
19051.0,1.45
19053.0,1.09
19055.0,0.66
19056.0,0.7
19058.0,0.83
19060.0,0.92
19062.0,0.91
19064.0,1.12
19066.0,1.03
19068.0,0.89
19070.0,0.45
19073.0,0.52
19075.0,0.75
19077.0,0.86
19079.0,0.74
19081.0,0.96
19083.0,1.12
19085.0,1.23
19087.0,0.98
19089.0,1.02
19091.0,1.18
19093.0,1.02
19095.0,0.58
19097.0,0.15
19098.0,0.45
19100.0,0.73
19102.0,0.79
19104.0,0.76
19106.0,1.25
19108.0,1.23
19110.0,0.88
19112.0,0.35
19115.0,0.47
19117.0,0.43
19119.0,0.55
19121.0,0.8
19123.0,0.93
19125.0,0.83
19127.0,0.86
19129.0,0.53
19131.0,0.76
19133.0,1.04
19135.0,0.85
19137.0,0.65
19139.0,0.35
19140.0,0.84
19142.0,1.6
19144.0,1.33
19146.0,1.12
19148.0,1.37
19150.0,1.4
19152.0,1.19
19154.0,0.74
19156.0,0.75
19159.0,1.0
19161.0,1.48
19163.0,1.79
19165.0,1.55
19167.0,1.51
19169.0,1.32
19171.0,1.5
19173.0,1.54
19175.0,0.78
19177.0,0.94
19179.0,1.48
19181.0,1.8
19183.0,1.9
19184.0,1.41
19186.0,1.49
19188.0,1.51
19190.0,1.27
19192.0,0.39
19194.0,0.72
19196.0,1.75
19198.0,1.86
19201.0,2.14
19203.0,2.29
19205.0,2.06
19207.0,1.88
19209.0,1.79
19211.0,1.69
19213.0,1.39
19215.0,1.22
19217.0,1.41
19219.0,1.76
19221.0,1.86
19223.0,1.79
19225.0,1.59
19226.0,1.91
19228.0,1.91
19230.0,1.62
19232.0,2.17
19234.0,1.97
19236.0,1.77
19238.0,2.08
19240.0,2.24
19243.0,2.11
19245.0,1.63
19247.0,1.22
19249.0,1.86
19251.0,2.34
19253.0,2.22
19255.0,1.74
19257.0,1.6
19259.0,1.67
19261.0,1.92
19263.0,1.96
19265.0,1.95
19267.0,1.53
19268.0,1.75
19270.0,1.73
19272.0,1.61
19274.0,1.67
19276.0,1.46
19278.0,1.73
19280.0,1.96
19282.0,1.76
19284.0,1.57
19287.0,1.07
19289.0,1.64
19291.0,2.23
19293.0,1.66
19295.0,1.36
19297.0,1.47
19299.0,1.44
19301.0,1.61
19303.0,1.63
19305.0,1.59
19307.0,1.45
19309.0,1.38
19311.0,1.33
19312.0,1.4
19314.0,1.2
19316.0,1.29
19318.0,1.69
19320.0,1.73
19322.0,1.94
19324.0,1.8
19326.0,1.75
19329.0,1.89
19331.0,1.98
19333.0,1.66
19335.0,1.61
19337.0,1.44
19339.0,1.45
19341.0,1.6
19343.0,2.25
19345.0,2.21
19347.0,1.95
19349.0,2.11
19351.0,2.09
19353.0,1.7
19354.0,1.56
19356.0,1.35
19358.0,1.4
19360.0,1.55
19362.0,1.86
19364.0,1.95
19366.0,2.17
19368.0,2.0
19371.0,1.98
19373.0,1.66
19375.0,1.43
19377.0,1.19
19379.0,1.39
19381.0,1.66
19383.0,2.2
19385.0,1.83
19387.0,1.62
19389.0,1.76
19391.0,1.96
19393.0,1.65
19395.0,1.51
19396.0,1.21
19398.0,1.15
19400.0,1.42
19402.0,2.15
19404.0,1.89
19406.0,1.38
19408.0,1.77
19410.0,1.98
19412.0,1.68
19415.0,1.15
19417.0,1.19
19419.0,1.64
19421.0,1.7
19423.0,1.57
19425.0,1.45
19427.0,1.56
19429.0,1.97
19431.0,1.85
19433.0,1.6
19435.0,1.5
19437.0,1.26
19439.0,1.24
19440.0,1.66
19442.0,1.66
19444.0,1.46
19446.0,1.47
19448.0,1.54
19450.0,1.31
19452.0,1.55
19454.0,1.66
19457.0,1.45
19459.0,1.62
19461.0,1.79
19463.0,1.78
19465.0,1.68
19467.0,1.26
19469.0,1.46
19471.0,1.26
19473.0,1.12
19475.0,1.02
19477.0,0.86
19479.0,1.37
19481.0,1.67
19482.0,1.36
19484.0,1.45
19486.0,1.53
19488.0,1.3
19490.0,1.84
19492.0,1.56
19494.0,1.2
19496.0,1.14
19499.0,1.46
19501.0,1.77
19503.0,1.84
19505.0,1.45
19507.0,1.23
19509.0,1.26
19511.0,1.55
19513.0,1.39
19515.0,1.16
19517.0,0.85
