time,ch2
1.0,2.22
3.0,2.23
5.0,2.15
7.0,2.16
9.0,1.99
11.0,2.12
13.0,2.04
15.0,2.23
17.0,2.01
19.0,1.85
21.0,1.84
23.0,1.92
25.0,1.95
27.0,2.02
29.0,1.89
31.0,1.76
33.0,1.51
35.0,1.49
37.0,1.32
39.0,1.09
41.0,1.08
44.0,1.11
46.0,1.25
48.0,1.21
49.0,1.18
51.0,1.16
53.0,1.12
55.0,0.96
57.0,0.94
59.0,0.77
61.0,0.65
63.0,0.61
65.0,0.76
67.0,0.83
69.0,0.78
71.0,0.75
73.0,0.94
75.0,0.95
77.0,0.98
79.0,0.62
81.0,0.6
83.0,0.68
86.0,0.97
88.0,1.04
90.0,1.15
92.0,1.27
94.0,1.45
96.0,1.37
97.0,1.22
99.0,1.15
101.0,0.94
103.0,1.19
105.0,1.43
107.0,1.25
109.0,1.48
111.0,1.36
113.0,1.29
115.0,1.3
117.0,1.24
119.0,1.02
121.0,1.38
123.0,1.41
125.0,1.55
128.0,1.53
130.0,1.36
132.0,1.27
134.0,1.31
136.0,1.5
138.0,1.65
139.0,1.56
141.0,1.35
143.0,1.31
145.0,1.43
147.0,1.37
149.0,1.34
151.0,1.53
153.0,1.59
155.0,1.65
157.0,1.51
159.0,1.72
161.0,1.52
163.0,1.56
165.0,1.76
167.0,1.9
169.0,1.67
172.0,1.83
174.0,1.72
176.0,1.75
178.0,1.48
180.0,1.47
182.0,1.35
183.0,1.56
185.0,1.81
187.0,1.93
189.0,1.76
191.0,1.83
193.0,1.61
195.0,1.77
197.0,1.56
199.0,1.5
201.0,1.55
203.0,1.75
205.0,1.75
207.0,1.62
209.0,1.48
211.0,1.38
214.0,1.25
216.0,1.45
218.0,1.25
220.0,1.21
222.0,1.53
224.0,1.42
225.0,1.49
227.0,1.41
229.0,1.32
231.0,1.35
233.0,1.18
235.0,1.36
237.0,1.38
239.0,1.2
241.0,1.27
243.0,1.37
245.0,1.53
247.0,1.46
249.0,1.43
251.0,1.39
253.0,1.65
256.0,1.56
258.0,1.49
260.0,1.33
262.0,0.99
264.0,1.13
266.0,1.32
268.0,1.22
269.0,1.13
271.0,1.15
273.0,1.31
275.0,1.19
277.0,1.22
279.0,1.02
281.0,1.17
283.0,1.21
285.0,1.51
287.0,1.47
289.0,1.63
291.0,1.62
293.0,1.59
295.0,1.57
297.0,1.43
300.0,1.41
302.0,1.61
304.0,1.63
306.0,1.66
308.0,1.75
310.0,1.57
311.0,1.53
313.0,1.56
315.0,1.67
317.0,1.61
319.0,1.63
321.0,1.59
323.0,1.34
325.0,1.67
327.0,1.76
329.0,1.55
331.0,1.75
333.0,1.76
335.0,1.93
337.0,1.82
339.0,1.96
342.0,1.78
344.0,1.97
346.0,1.99
348.0,1.97
350.0,1.98
352.0,2.07
353.0,2.12
355.0,2.18
357.0,1.9
359.0,1.95
361.0,1.95
363.0,1.77
365.0,1.94
367.0,1.84
369.0,1.74
371.0,1.94
373.0,1.87
375.0,1.81
377.0,1.55
379.0,1.52
381.0,1.43
384.0,1.79
386.0,1.86
388.0,1.93
390.0,1.89
392.0,1.63
394.0,1.66
396.0,1.65
397.0,1.28
399.0,1.39
401.0,1.53
403.0,1.7
405.0,1.74
407.0,1.55
409.0,1.35
411.0,1.57
413.0,1.43
415.0,1.55
417.0,1.61
419.0,1.55
421.0,1.58
423.0,1.53
425.0,1.66
428.0,1.67
430.0,1.62
432.0,1.55
434.0,1.66
436.0,1.69
438.0,1.75
439.0,1.56
441.0,1.53
443.0,1.47
445.0,1.58
447.0,1.55
449.0,1.53
451.0,1.46
453.0,1.66
455.0,1.74
457.0,1.63
459.0,1.35
461.0,1.56
463.0,1.41
465.0,1.54
467.0,1.44
470.0,1.64
472.0,1.6
474.0,1.51
476.0,1.46
478.0,1.3
480.0,1.2
481.0,1.21
483.0,1.23
485.0,1.55
487.0,1.75
489.0,1.46
491.0,1.49
493.0,1.5
495.0,1.37
497.0,1.27
499.0,1.33
501.0,1.16
503.0,1.5
505.0,1.52
507.0,1.45
509.0,1.41
512.0,1.37
514.0,1.2
516.0,1.35
518.0,1.32
520.0,1.05
522.0,1.23
524.0,1.17
525.0,1.27
527.0,1.21
529.0,1.31
531.0,1.35
533.0,1.32
535.0,1.38
537.0,1.17
539.0,1.38
541.0,1.28
543.0,1.39
545.0,1.37
547.0,1.39
549.0,1.2
551.0,1.3
553.0,1.35
556.0,1.64
558.0,1.73
560.0,1.52
562.0,1.65
564.0,1.72
566.0,1.92
567.0,2.02
569.0,2.01
571.0,1.95
573.0,1.92
575.0,1.85
577.0,1.67
579.0,1.46
581.0,1.65
583.0,1.74
585.0,1.84
587.0,1.81
589.0,1.82
591.0,1.77
593.0,1.64
595.0,1.65
598.0,1.42
600.0,1.34
602.0,1.49
604.0,1.58
606.0,1.59
608.0,1.59
609.0,1.6
611.0,1.42
613.0,1.49
615.0,1.49
617.0,1.26
619.0,1.32
621.0,1.35
623.0,1.37
625.0,1.48
627.0,1.4
629.0,1.35
631.0,1.37
633.0,1.36
635.0,1.4
637.0,1.38
640.0,1.23
642.0,1.25
644.0,1.33
646.0,1.38
648.0,1.45
650.0,1.44
652.0,1.42
653.0,1.42
655.0,1.39
657.0,1.34
659.0,1.34
661.0,1.23
663.0,1.29
665.0,1.35
667.0,1.37
669.0,1.4
671.0,1.35
673.0,1.3
675.0,1.29
677.0,1.26
679.0,1.21
681.0,1.28
684.0,1.28
686.0,1.32
688.0,1.43
690.0,1.41
692.0,1.31
694.0,1.42
695.0,1.33
697.0,1.28
699.0,1.25
701.0,1.28
703.0,1.4
705.0,1.39
707.0,1.37
709.0,1.42
711.0,1.41
713.0,1.41
715.0,1.43
717.0,1.43
719.0,1.49
721.0,1.46
723.0,1.45
726.0,1.4
728.0,1.48
730.0,1.39
732.0,1.36
734.0,1.46
736.0,1.59
737.0,1.63
739.0,1.65
741.0,1.5
743.0,1.41
745.0,1.37
747.0,1.39
749.0,1.32
751.0,1.35
753.0,1.42
755.0,1.4
757.0,1.4
759.0,1.4
761.0,1.35
763.0,1.29
765.0,1.33
768.0,1.44
770.0,1.39
772.0,1.45
774.0,1.46
776.0,1.37
778.0,1.32
780.0,1.3
781.0,1.31
783.0,1.47
785.0,1.45
787.0,1.46
789.0,1.53
791.0,1.5
793.0,1.47
795.0,1.4
797.0,1.49
799.0,1.36
801.0,1.51
803.0,1.49
805.0,1.41
807.0,1.43
809.0,1.35
812.0,1.25
814.0,1.26
816.0,1.32
818.0,1.37
820.0,1.36
822.0,1.33
823.0,1.31
825.0,1.43
827.0,1.46
829.0,1.46
831.0,1.48
833.0,1.6
835.0,1.6
837.0,1.53
839.0,1.4
841.0,1.49
843.0,1.49
845.0,1.43
847.0,1.38
849.0,1.37
851.0,1.35
854.0,1.43
856.0,1.36
858.0,1.23
860.0,1.29
862.0,1.32
864.0,1.35
865.0,1.41
867.0,1.4
869.0,1.48
871.0,1.53
873.0,1.39
875.0,1.4
877.0,1.42
879.0,1.43
881.0,1.39
883.0,1.41
885.0,1.34
887.0,1.35
889.0,1.24
891.0,1.17
893.0,1.24
896.0,1.22
898.0,1.17
900.0,1.13
902.0,1.12
904.0,1.21
906.0,1.25
908.0,1.24
909.0,1.24
911.0,1.15
913.0,1.23
915.0,1.38
917.0,1.42
919.0,1.47
921.0,1.51
923.0,1.41
925.0,1.41
927.0,1.45
929.0,1.45
931.0,1.49
933.0,1.55
935.0,1.49
937.0,1.48
940.0,1.36
942.0,1.22
944.0,1.31
946.0,1.21
948.0,1.22
950.0,1.2
951.0,1.21
953.0,1.34
955.0,1.33
957.0,1.34
959.0,1.31
961.0,1.27
963.0,1.27
965.0,1.35
967.0,1.43
969.0,1.45
971.0,1.59
973.0,1.66
975.0,1.61
977.0,1.52
979.0,1.49
982.0,1.49
984.0,1.45
986.0,1.51
988.0,1.48
990.0,1.57
992.0,1.56
993.0,1.55
995.0,1.44
997.0,1.47
999.0,1.47
1001.0,1.58
1003.0,1.55
1005.0,1.6
1007.0,1.61
1009.0,1.6
1011.0,1.46
1013.0,1.55
1015.0,1.85
1017.0,2.33
1019.0,2.26
1021.0,2.12
1024.0,1.88
1026.0,1.81
1028.0,1.65
1030.0,1.61
1032.0,1.53
1034.0,1.6
1036.0,1.51
1037.0,1.49
1039.0,1.55
1041.0,1.46
1043.0,1.41
1045.0,1.45
1047.0,1.45
1049.0,1.51
1051.0,1.55
1053.0,1.61
1055.0,1.67
1057.0,1.65
1059.0,1.64
1061.0,1.66
1063.0,1.62
1065.0,1.64
1068.0,1.63
1070.0,1.58
1072.0,1.76
1074.0,1.62
1076.0,1.55
1078.0,1.42
1079.0,1.46
1081.0,1.45
1083.0,1.53
1085.0,1.53
1087.0,1.57
1089.0,1.54
1091.0,1.59
1093.0,1.53
1095.0,1.45
1097.0,1.36
1099.0,1.33
1101.0,1.47
1103.0,1.51
1105.0,1.45
1107.0,1.35
1110.0,1.35
1112.0,1.4
1114.0,1.35
1116.0,1.34
1118.0,1.27
1120.0,1.26
1122.0,1.28
1123.0,1.18
1125.0,1.16
1127.0,1.11
1129.0,1.11
1131.0,1.21
1133.0,1.33
1135.0,1.38
1137.0,1.47
1139.0,1.38
1141.0,1.35
1143.0,1.33
1145.0,1.35
1147.0,1.44
1149.0,1.45
1152.0,1.4
1154.0,1.46
1156.0,1.41
1158.0,1.5
1160.0,1.5
1162.0,1.62
1164.0,1.91
1166.0,2.32
1167.0,2.62
1169.0,2.85
1171.0,2.92
1173.0,2.91
1175.0,2.81
1177.0,2.69
1179.0,2.53
1181.0,2.55
1183.0,2.52
1185.0,2.51
1187.0,2.52
1189.0,2.52
1191.0,2.5
1193.0,2.46
1196.0,2.3
1198.0,2.16
1200.0,2.1
1202.0,2.07
1204.0,1.91
1206.0,1.7
1208.0,1.41
1209.0,1.08
1211.0,0.76
1213.0,0.56
1215.0,0.37
1217.0,0.32
1219.0,0.28
1221.0,0.23
1223.0,0.19
1225.0,0.34
1227.0,0.36
1229.0,0.43
1231.0,0.5
1233.0,0.57
1235.0,0.7
1238.0,0.69
1240.0,0.74
1242.0,0.8
1244.0,0.79
1246.0,0.88
1248.0,0.99
1250.0,1.03
1251.0,1.03
1253.0,1.01
1255.0,1.07
1257.0,1.03
1259.0,1.14
1261.0,1.05
1263.0,0.95
1265.0,1.01
1267.0,1.03
1269.0,1.05
1271.0,1.25
1273.0,1.25
1275.0,1.25
1277.0,1.28
1280.0,1.29
1282.0,1.24
1284.0,1.2
1286.0,1.27
1288.0,1.41
1290.0,1.41
1292.0,1.49
1294.0,1.7
1295.0,2.88
1297.0,3.3
1299.0,3.3
1301.0,3.3
1303.0,3.3
1305.0,3.3
1307.0,3.3
1309.0,3.0
1311.0,2.42
1313.0,1.84
1315.0,1.43
1317.0,1.19
1319.0,1.07
1321.0,0.93
1324.0,0.85
1326.0,0.85
1328.0,0.81
1330.0,0.82
1332.0,0.85
1334.0,0.93
1336.0,0.93
1337.0,1.02
1339.0,1.04
1341.0,1.05
1343.0,1.02
1345.0,1.08
1347.0,1.07
1349.0,1.19
1351.0,1.28
1353.0,1.36
1355.0,1.32
1357.0,1.45
1359.0,1.42
1361.0,1.45
1363.0,1.39
1366.0,1.45
1368.0,1.44
1370.0,1.41
1372.0,1.44
1374.0,1.45
1376.0,1.4
1378.0,1.43
1380.0,1.43
1381.0,1.5
1383.0,1.43
1385.0,1.46
1387.0,1.53
1389.0,1.52
1391.0,1.56
1393.0,1.57
1395.0,1.53
1397.0,1.53
1399.0,1.46
1401.0,1.56
1403.0,1.58
1405.0,1.66
1408.0,2.06
1410.0,2.39
1412.0,2.21
1414.0,1.93
1416.0,1.78
1418.0,1.71
1420.0,1.75
1422.0,1.72
1424.0,1.87
1425.0,2.04
1427.0,2.05
1429.0,1.92
1431.0,1.86
1433.0,1.7
1435.0,1.49
1437.0,1.38
1439.0,1.28
1441.0,1.2
1443.0,1.16
1445.0,1.24
1447.0,1.25
1449.0,1.27
1452.0,1.38
1454.0,1.32
1456.0,1.32
1458.0,1.32
1460.0,1.31
1462.0,1.19
1464.0,1.19
1466.0,1.22
1467.0,1.27
1469.0,1.27
1471.0,1.31
1473.0,1.33
1475.0,1.32
1477.0,1.29
1479.0,1.31
1481.0,1.37
1483.0,1.37
1485.0,1.47
1487.0,1.47
1489.0,1.49
1491.0,1.52
1494.0,1.5
1496.0,1.46
1498.0,1.46
1500.0,1.52
1502.0,1.5
1504.0,1.46
1506.0,1.48
1508.0,1.51
1510.0,1.49
1511.0,1.46
1513.0,1.46
1515.0,1.42
1517.0,1.49
1519.0,1.45
1521.0,1.46
1523.0,1.39
1525.0,1.4
1527.0,1.44
1529.0,1.45
1531.0,1.49
1533.0,1.57
1536.0,1.51
1538.0,1.47
1540.0,1.45
1542.0,1.46
1544.0,1.47
1546.0,1.55
1548.0,1.57
1550.0,1.6
1552.0,1.58
1553.0,1.73
1555.0,1.67
1557.0,1.75
1559.0,1.76
1561.0,1.67
1563.0,1.64
1565.0,1.77
1567.0,1.83
1569.0,1.8
1571.0,1.74
1573.0,1.61
1575.0,1.6
1577.0,1.56
1580.0,1.6
1582.0,1.6
1584.0,1.6
1586.0,1.67
1588.0,1.71
1590.0,1.65
1592.0,1.56
1594.0,1.5
1596.0,1.46
1597.0,1.48
1599.0,1.56
1601.0,1.65
1603.0,1.64
1605.0,1.64
1607.0,1.59
1609.0,1.54
1611.0,1.47
1613.0,1.44
1615.0,1.44
1617.0,1.44
1619.0,1.51
1622.0,1.45
1624.0,1.42
1626.0,1.43
1628.0,1.39
1630.0,1.36
1632.0,1.35
1634.0,1.36
1636.0,1.35
1638.0,1.3
1639.0,1.27
1641.0,1.55
1643.0,1.62
1645.0,1.67
1647.0,1.59
1649.0,1.32
1651.0,1.14
1653.0,1.27
1655.0,1.39
1657.0,1.54
1659.0,1.63
1661.0,1.51
1664.0,1.31
1666.0,1.36
1668.0,1.48
1670.0,1.64
1672.0,1.52
1674.0,1.33
1676.0,1.2
1678.0,1.11
1680.0,1.01
1682.0,1.09
1683.0,1.15
1685.0,1.3
1687.0,1.31
1689.0,1.26
1691.0,1.3
1693.0,1.17
1695.0,1.11
1697.0,1.09
1699.0,1.05
1701.0,1.07
1703.0,1.14
1705.0,1.2
1708.0,1.07
1710.0,1.04
1712.0,1.17
1714.0,1.31
1716.0,1.25
1718.0,1.18
1720.0,1.22
1722.0,1.35
1724.0,1.3
1725.0,1.42
1727.0,1.43
1729.0,1.46
1731.0,1.43
1733.0,1.13
1735.0,0.7
1737.0,0.89
1739.0,1.37
1741.0,1.67
1743.0,1.45
1745.0,1.34
1747.0,1.05
1750.0,0.81
1752.0,0.36
1754.0,0.0
1756.0,0.06
1758.0,0.0
1760.0,0.0
1762.0,0.0
1764.0,0.0
1766.0,0.0
1768.0,0.0
1769.0,0.0
1771.0,0.0
1773.0,0.0
1775.0,0.0
1777.0,0.0
1779.0,0.0
1781.0,0.0
1783.0,0.0
1785.0,0.0
1787.0,0.0
1789.0,0.1
1792.0,0.36
1794.0,0.56
1796.0,0.6
1798.0,0.6
1800.0,0.72
1802.0,0.97
1804.0,1.22
1806.0,1.55
1808.0,1.81
1810.0,1.8
1812.0,1.87
1813.0,2.15
1815.0,2.33
1817.0,2.26
1819.0,2.47
1821.0,2.41
1823.0,2.34
1825.0,2.25
1827.0,2.26
1829.0,2.28
1831.0,2.27
1833.0,2.3
1836.0,2.36
1838.0,2.41
1840.0,2.34
1842.0,2.29
1844.0,2.29
1846.0,2.42
1848.0,2.36
1850.0,2.41
1852.0,2.42
1854.0,2.37
1855.0,2.4
1857.0,2.4
1859.0,2.29
1861.0,2.21
1863.0,2.23
1865.0,2.19
1867.0,2.04
1869.0,2.18
1871.0,2.21
1873.0,2.27
1875.0,2.06
1878.0,1.95
1880.0,1.96
1882.0,1.92
1884.0,1.92
1886.0,2.15
1888.0,2.15
1890.0,2.16
1892.0,2.05
1894.0,2.06
1896.0,2.02
1898.0,2.01
1899.0,1.99
1901.0,2.12
1903.0,2.21
1905.0,2.26
1907.0,2.17
1909.0,2.11
1911.0,2.07
1913.0,2.05
1915.0,2.0
1917.0,1.94
1920.0,1.98
1922.0,2.07
1924.0,1.93
1926.0,1.94
1928.0,1.94
1930.0,1.78
1932.0,1.79
1934.0,1.84
1936.0,1.77
1938.0,1.84
1940.0,1.83
1941.0,1.71
1943.0,1.64
1945.0,1.71
1947.0,1.77
1949.0,1.79
1951.0,1.68
1953.0,1.61
1955.0,1.65
1957.0,1.69
1959.0,1.58
1961.0,1.67
1964.0,1.57
1966.0,1.55
1968.0,1.73
1970.0,1.74
1972.0,1.86
1974.0,1.69
1976.0,1.62
1978.0,1.53
1980.0,1.54
1982.0,1.47
1984.0,1.49
1985.0,1.58
1987.0,1.59
1989.0,1.65
1991.0,1.55
1993.0,1.49
1995.0,1.49
1997.0,1.5
1999.0,1.59
2001.0,1.68
2003.0,1.7
2006.0,1.85
2008.0,2.01
2010.0,2.08
2012.0,2.07
2014.0,2.02
2016.0,2.06
2018.0,1.95
2020.0,1.99
2022.0,2.04
2024.0,1.9
2026.0,1.89
2027.0,1.81
2029.0,1.81
2031.0,1.88
2033.0,1.84
2035.0,1.81
2037.0,1.8
2039.0,1.71
2041.0,1.75
2043.0,1.76
2045.0,1.82
2048.0,1.94
2050.0,2.1
2052.0,2.1
2054.0,2.2
2056.0,2.25
2058.0,2.39
2060.0,2.61
2062.0,2.65
2064.0,2.73
2066.0,2.91
2068.0,2.89
2070.0,2.83
2071.0,2.69
2073.0,2.67
2075.0,2.76
2077.0,2.76
2079.0,2.61
2081.0,2.69
2083.0,2.62
2085.0,2.71
2087.0,2.72
2089.0,2.68
2092.0,2.78
2094.0,2.81
2096.0,2.69
2098.0,2.76
2100.0,2.93
2102.0,2.96
2104.0,2.82
2106.0,2.81
2108.0,2.79
2110.0,2.76
2112.0,2.65
2113.0,2.57
2115.0,2.42
2117.0,2.34
2119.0,2.26
2121.0,2.15
2123.0,2.05
2125.0,1.97
2127.0,1.83
2129.0,1.78
2131.0,1.79
2134.0,1.7
2136.0,1.61
2138.0,1.54
2140.0,1.52
2142.0,1.4
2144.0,1.35
2146.0,1.33
2148.0,1.32
2150.0,1.32
2152.0,1.29
2154.0,1.3
2156.0,1.28
2157.0,1.16
2159.0,1.04
2161.0,0.84
2163.0,0.76
2165.0,0.83
2167.0,0.93
2169.0,0.85
2171.0,0.85
2173.0,0.72
2176.0,0.7
2178.0,0.5
2180.0,0.55
2182.0,0.62
2184.0,0.64
2186.0,0.51
2188.0,0.39
2190.0,0.44
2192.0,0.48
2194.0,0.39
2196.0,0.39
2198.0,0.32
2199.0,0.45
2201.0,0.43
2203.0,0.46
2205.0,0.61
2207.0,0.65
2209.0,0.66
2211.0,0.62
2213.0,0.73
2215.0,0.79
2217.0,0.72
2220.0,0.83
2222.0,0.84
2224.0,0.89
2226.0,0.95
2228.0,0.87
2230.0,0.82
2232.0,1.03
2234.0,1.09
2236.0,1.14
2238.0,1.15
2240.0,1.15
2242.0,1.12
2243.0,1.04
2245.0,0.98
2247.0,0.84
2249.0,0.95
2251.0,0.96
2253.0,1.03
2255.0,1.11
2257.0,1.13
2259.0,1.11
2262.0,1.05
2264.0,0.97
2266.0,1.0
2268.0,1.03
2270.0,1.05
2272.0,0.98
2274.0,0.94
2276.0,0.98
2278.0,0.95
2280.0,0.91
2282.0,1.01
2284.0,1.03
2285.0,1.09
2287.0,1.11
2289.0,1.14
2291.0,1.2
2293.0,1.13
2295.0,1.09
2297.0,1.11
2299.0,1.08
2301.0,0.95
2304.0,0.88
2306.0,0.91
2308.0,0.86
2310.0,0.93
2312.0,0.97
2314.0,1.02
2316.0,1.08
2318.0,1.07
2320.0,1.08
2322.0,1.1
2324.0,1.08
2326.0,1.08
2328.0,1.13
2329.0,1.16
2331.0,1.17
2333.0,1.09
2335.0,1.11
2337.0,1.14
2339.0,1.17
2341.0,1.17
2343.0,1.08
2345.0,1.04
2348.0,1.03
2350.0,1.16
2352.0,1.26
2354.0,1.24
2356.0,1.28
2358.0,1.31
2360.0,1.3
2362.0,1.27
2364.0,1.24
2366.0,1.3
2368.0,1.33
2370.0,1.35
2371.0,1.43
2373.0,1.3
2375.0,1.34
2377.0,1.26
2379.0,1.31
2381.0,1.37
2383.0,1.38
2385.0,1.49
2387.0,1.43
2390.0,1.46
2392.0,1.51
2394.0,1.4
2396.0,1.32
2398.0,1.38
2400.0,1.37
2402.0,1.39
2404.0,1.31
2406.0,1.37
2408.0,1.46
2410.0,1.53
2412.0,1.49
2414.0,1.48
2415.0,1.5
2417.0,1.47
2419.0,1.43
2421.0,1.36
2423.0,1.3
2425.0,1.31
2427.0,1.25
2429.0,1.26
2432.0,1.29
2434.0,1.34
2436.0,1.39
2438.0,1.33
2440.0,1.33
2442.0,1.37
2444.0,1.41
2446.0,1.47
2448.0,1.48
2450.0,1.55
2452.0,1.59
2454.0,1.47
2456.0,1.49
2458.0,1.51
2459.0,1.45
2461.0,1.33
2463.0,1.38
2465.0,1.55
2467.0,1.56
2469.0,1.63
2471.0,1.61
2473.0,1.55
2476.0,1.56
2478.0,1.47
2480.0,1.46
2482.0,1.48
2484.0,1.42
2486.0,1.51
2488.0,1.55
2490.0,1.63
2492.0,1.62
2494.0,1.63
2496.0,1.58
2498.0,1.55
2500.0,1.6
2501.0,1.59
2503.0,1.51
2505.0,1.53
2507.0,1.49
2509.0,1.51
2511.0,1.42
2513.0,1.44
2515.0,1.55
2518.0,1.55
2520.0,1.53
2522.0,1.45
2524.0,1.4
2526.0,1.38
2528.0,1.36
2530.0,1.38
2532.0,1.44
2534.0,1.36
2536.0,1.39
2538.0,1.43
2540.0,1.47
2542.0,1.44
2544.0,1.33
2545.0,1.34
2547.0,1.31
2549.0,1.3
2551.0,1.42
2553.0,1.39
2555.0,1.4
2557.0,1.38
2560.0,1.33
2562.0,1.34
2564.0,1.37
2566.0,1.41
2568.0,1.5
2570.0,1.53
2572.0,1.48
2574.0,1.43
2576.0,1.4
2578.0,1.29
2580.0,1.31
2582.0,1.32
2584.0,1.34
2586.0,1.41
2588.0,1.45
2589.0,1.42
2591.0,1.39
2593.0,1.27
2595.0,1.22
2597.0,1.26
2599.0,1.31
2601.0,1.35
2604.0,1.35
2606.0,1.38
2608.0,1.35
2610.0,1.27
2612.0,1.3
2614.0,1.29
2616.0,1.31
2618.0,1.42
2620.0,1.39
2622.0,1.37
2624.0,1.32
2626.0,1.4
2628.0,1.43
2630.0,1.44
2631.0,1.49
2633.0,1.46
2635.0,1.43
2637.0,1.44
2639.0,1.38
2641.0,1.37
2643.0,1.36
2646.0,1.45
2648.0,1.46
2650.0,1.51
2652.0,1.46
2654.0,1.47
2656.0,1.5
2658.0,1.47
2660.0,1.43
2662.0,1.26
2664.0,1.38
2666.0,1.55
2668.0,1.59
2670.0,1.46
2672.0,1.23
2674.0,1.15
2675.0,1.41
2677.0,1.4
2679.0,1.45
2681.0,1.56
2683.0,1.47
2685.0,1.47
2688.0,1.39
2690.0,1.28
2692.0,1.23
2694.0,1.07
2696.0,0.89
2698.0,0.9
2700.0,1.22
2702.0,1.07
2704.0,0.63
2706.0,0.51
2708.0,0.52
2710.0,0.37
2712.0,0.0
2714.0,0.0
2716.0,0.0
2718.0,0.0
2719.0,0.0
2721.0,0.0
2723.0,0.0
2725.0,0.0
2727.0,0.0
2729.0,0.0
2732.0,0.0
2734.0,0.0
2736.0,0.0
2738.0,0.0
2740.0,0.0
2742.0,0.0
2744.0,0.0
2746.0,0.0
2748.0,0.0
2750.0,0.0
2752.0,0.0
2754.0,0.0
2756.0,0.0
2758.0,0.0
2760.0,0.0
2761.0,0.0
2763.0,0.0
2765.0,0.0
2767.0,0.0
2769.0,0.0
2771.0,0.0
2774.0,0.0
2776.0,0.0
2778.0,0.0
2780.0,0.0
2782.0,0.0
2784.0,0.0
2786.0,0.0
2788.0,0.0
2790.0,0.0
2792.0,0.0
2794.0,0.0
2796.0,0.0
2798.0,0.0
2800.0,0.0
2802.0,0.0
2804.0,0.0
2805.0,0.04
2807.0,0.1
2809.0,0.24
2811.0,0.22
2813.0,0.4
2816.0,0.53
2818.0,0.61
2820.0,0.78
2822.0,1.03
2824.0,1.19
2826.0,1.24
2828.0,1.05
2830.0,1.14
2832.0,1.62
2834.0,1.95
2836.0,2.21
2838.0,2.35
2840.0,2.45
2842.0,2.49
2844.0,2.31
2846.0,2.18
2847.0,2.15
2849.0,2.27
2851.0,2.48
2853.0,2.65
2855.0,2.72
2857.0,2.65
2860.0,2.34
2862.0,2.06
2864.0,2.52
2866.0,3.01
2868.0,2.84
2870.0,2.61
2872.0,2.5
2874.0,2.32
2876.0,2.25
2878.0,2.21
2880.0,2.23
2882.0,2.4
2884.0,2.43
2886.0,2.5
2888.0,2.57
2890.0,2.59
2891.0,2.59
2893.0,2.48
2895.0,2.55
2897.0,2.55
2899.0,2.63
2902.0,2.51
2904.0,2.49
2906.0,2.45
2908.0,2.26
2910.0,2.55
2912.0,3.05
2914.0,3.12
2916.0,2.88
2918.0,2.68
2920.0,2.66
2922.0,2.6
2924.0,2.45
2926.0,2.31
2928.0,2.23
2930.0,2.4
2932.0,2.65
2933.0,2.53
2935.0,2.34
2937.0,2.25
2939.0,2.45
2941.0,2.53
2944.0,2.59
2946.0,2.65
2948.0,2.69
2950.0,2.64
2952.0,2.57
2954.0,2.47
2956.0,2.43
2958.0,2.27
2960.0,2.08
2962.0,2.05
2964.0,2.04
2966.0,2.07
2968.0,2.05
2970.0,2.02
2972.0,1.86
2974.0,1.69
2976.0,1.72
2977.0,1.68
2979.0,1.67
2981.0,1.57
2983.0,1.49
2985.0,1.66
2988.0,1.68
2990.0,1.67
2992.0,1.56
2994.0,1.5
2996.0,1.36
2998.0,1.39
3000.0,1.35
3002.0,1.22
3004.0,1.08
3006.0,1.27
3008.0,1.46
3010.0,1.51
3012.0,1.52
3014.0,1.55
3016.0,1.51
3018.0,1.49
3019.0,1.55
3021.0,1.52
3023.0,1.55
3025.0,1.68
3027.0,1.72
3030.0,1.75
3032.0,1.8
3034.0,1.83
3036.0,1.86
3038.0,2.07
3040.0,2.03
3042.0,2.01
3044.0,1.95
3046.0,2.1
3048.0,2.18
3050.0,2.23
3052.0,2.18
3054.0,2.09
3056.0,2.15
3058.0,2.09
3060.0,2.12
3062.0,2.16
3063.0,2.11
3065.0,2.06
3067.0,2.08
3069.0,2.03
3072.0,2.11
3074.0,2.06
3076.0,2.08
3078.0,2.1
3080.0,2.13
3082.0,1.98
3084.0,1.99
3086.0,2.09
3088.0,2.1
3090.0,2.06
3092.0,2.19
3094.0,2.56
3096.0,2.91
3098.0,2.98
3100.0,3.12
3102.0,3.13
3104.0,3.3
3106.0,3.3
3107.0,3.3
3109.0,3.3
3111.0,3.3
3113.0,3.3
3116.0,3.3
3118.0,3.3
3120.0,3.3
3122.0,3.3
3124.0,3.3
3126.0,3.26
3128.0,3.15
3130.0,3.19
3132.0,3.25
3134.0,3.2
3136.0,3.14
3138.0,3.15
3140.0,3.19
3142.0,3.12
3144.0,3.08
3146.0,3.01
3148.0,3.07
3149.0,3.08
3151.0,3.14
3153.0,3.18
3155.0,3.28
3158.0,3.22
3160.0,3.13
3162.0,3.25
3164.0,3.27
3166.0,3.21
3168.0,3.29
3170.0,3.23
3172.0,3.16
3174.0,2.97
3176.0,2.81
3178.0,2.68
3180.0,2.5
3182.0,2.51
3184.0,2.53
3186.0,2.56
3188.0,2.39
3190.0,2.2
3192.0,2.01
3193.0,1.91
3195.0,1.9
3197.0,1.9
3200.0,1.87
3202.0,1.91
3204.0,2.0
3206.0,2.01
3208.0,2.02
3210.0,1.95
3212.0,1.75
3214.0,1.61
3216.0,1.56
3218.0,1.62
3220.0,1.56
3222.0,1.53
3224.0,1.39
3226.0,1.32
3228.0,1.26
3230.0,1.23
3232.0,1.12
3234.0,1.04
3236.0,0.97
3237.0,0.81
3239.0,0.81
3241.0,0.9
3244.0,0.82
3246.0,0.86
3248.0,0.75
3250.0,0.75
3252.0,0.94
3254.0,1.05
3256.0,1.25
3258.0,1.37
3260.0,1.95
3262.0,2.29
3264.0,2.39
3266.0,2.37
3268.0,2.35
3270.0,2.31
3272.0,2.34
3274.0,2.23
3276.0,2.22
3278.0,2.14
3279.0,2.08
3281.0,2.07
3283.0,1.92
3286.0,1.76
3288.0,1.56
3290.0,1.49
3292.0,1.44
3294.0,1.31
3296.0,1.29
3298.0,1.26
3300.0,1.24
3302.0,1.24
3304.0,1.25
3306.0,1.28
3308.0,1.18
3310.0,1.09
3312.0,0.98
3314.0,0.88
3316.0,1.04
3318.0,1.31
3320.0,1.38
3322.0,1.59
3323.0,1.93
3325.0,2.04
3328.0,1.86
3330.0,1.61
3332.0,1.37
3334.0,1.15
3336.0,0.97
3338.0,0.84
3340.0,0.71
3342.0,0.59
3344.0,0.49
3346.0,0.57
3348.0,0.55
3350.0,0.59
3352.0,0.63
3354.0,0.61
3356.0,0.55
3358.0,0.56
3360.0,0.45
3362.0,0.46
3364.0,0.6
3365.0,0.86
3367.0,1.07
3369.0,1.26
3372.0,1.41
3374.0,1.34
3376.0,1.14
3378.0,0.92
3380.0,0.79
3382.0,0.78
3384.0,0.75
3386.0,0.85
3388.0,0.6
3390.0,0.45
3392.0,0.3
3394.0,0.04
3396.0,0.0
3398.0,0.0
3400.0,0.0
3402.0,0.0
3404.0,0.0
3406.0,0.0
3408.0,0.0
3409.0,0.0
3411.0,0.0
3414.0,0.0
3416.0,0.0
3418.0,0.0
3420.0,0.0
3422.0,0.0
3424.0,0.0
3426.0,0.0
3428.0,0.0
3430.0,0.0
3432.0,0.0
3434.0,0.0
3436.0,0.0
3438.0,0.04
3440.0,0.08
3442.0,0.04
3444.0,0.15
3446.0,0.17
3448.0,0.13
3450.0,0.22
3452.0,0.45
3453.0,0.6
3456.0,0.72
3458.0,0.64
3460.0,0.67
3462.0,0.57
3464.0,0.7
3466.0,0.84
3468.0,0.85
3470.0,0.8
3472.0,0.82
3474.0,0.81
3476.0,0.88
3478.0,0.81
3480.0,0.83
3482.0,0.79
3484.0,0.83
3486.0,0.83
3488.0,0.95
3490.0,1.03
3492.0,1.08
3494.0,1.07
3495.0,1.11
3497.0,1.17
3500.0,1.16
3502.0,1.11
3504.0,1.1
3506.0,1.13
3508.0,1.17
3510.0,1.17
3512.0,1.16
3514.0,1.16
3516.0,1.25
3518.0,1.62
3520.0,1.75
3522.0,1.82
3524.0,1.77
3526.0,1.81
3528.0,1.95
3530.0,2.02
3532.0,1.88
3534.0,1.86
3536.0,1.91
3538.0,1.87
3539.0,1.83
3542.0,1.69
3544.0,1.55
3546.0,1.55
3548.0,1.57
3550.0,1.63
3552.0,1.54
3554.0,1.5
3556.0,1.42
3558.0,1.41
3560.0,1.38
3562.0,1.3
3564.0,1.31
3566.0,1.29
3568.0,1.24
3570.0,1.26
3572.0,1.35
3574.0,1.35
3576.0,1.26
3578.0,1.23
3580.0,1.2
3581.0,1.25
3584.0,1.25
3586.0,1.3
3588.0,1.34
3590.0,1.37
3592.0,1.41
3594.0,1.4
3596.0,1.4
3598.0,1.38
3600.0,1.37
3602.0,1.33
3604.0,1.37
3606.0,1.42
3608.0,1.45
3610.0,1.44
3612.0,1.39
3614.0,1.37
3616.0,1.27
3618.0,1.26
3620.0,1.48
3622.0,1.44
3624.0,1.49
3625.0,1.45
3628.0,1.47
3630.0,1.45
3632.0,1.43
3634.0,1.38
3636.0,1.33
3638.0,1.31
3640.0,1.35
3642.0,1.36
3644.0,1.47
3646.0,1.46
3648.0,1.4
3650.0,1.35
3652.0,1.36
3654.0,1.3
3656.0,1.26
3658.0,1.28
3660.0,1.31
3662.0,1.25
3664.0,1.32
3666.0,1.33
3667.0,1.34
3670.0,1.35
3672.0,1.36
3674.0,1.24
3676.0,1.25
3678.0,1.16
3680.0,1.12
3682.0,1.18
3684.0,1.24
3686.0,1.24
3688.0,1.2
3690.0,1.09
3692.0,1.07
3694.0,1.03
3696.0,0.98
3698.0,0.84
3700.0,0.85
3702.0,0.89
3704.0,0.93
3706.0,0.99
3708.0,0.99
3710.0,0.91
3712.0,0.85
3714.0,0.91
3716.0,0.97
3718.0,0.9
3720.0,0.47
3722.0,0.14
3724.0,0.02
3726.0,0.05
3728.0,0.06
3730.0,0.07
3732.0,0.0
3734.0,0.0
3736.0,0.0
3738.0,0.03
3740.0,0.1
3742.0,0.09
3744.0,0.09
3746.0,0.1
3748.0,0.15
3750.0,0.23
3752.0,0.16
3753.0,0.06
3756.0,0.07
3758.0,0.25
3760.0,0.48
3762.0,0.6
3764.0,0.59
3766.0,0.64
3768.0,0.59
3770.0,0.65
3772.0,0.71
3774.0,0.68
3776.0,0.56
3778.0,0.5
3780.0,0.61
3782.0,0.67
3784.0,0.75
3786.0,0.83
3788.0,0.83
3790.0,0.8
3792.0,0.81
3794.0,0.83
3796.0,0.66
3798.0,0.4
3800.0,0.45
3802.0,0.67
3804.0,0.85
3806.0,0.74
3808.0,0.73
3810.0,0.83
3812.0,0.95
3814.0,0.97
3816.0,1.09
3818.0,1.04
3820.0,1.1
3822.0,1.25
3824.0,1.45
3826.0,1.57
3828.0,1.63
3830.0,1.7
3832.0,1.76
3834.0,1.79
3836.0,1.73
3838.0,1.71
3841.0,1.69
3842.0,1.88
3844.0,2.14
3846.0,2.2
3848.0,2.25
3850.0,2.22
3852.0,2.07
3854.0,2.04
3856.0,2.01
3858.0,1.83
3860.0,1.69
3862.0,1.71
3864.0,1.95
3866.0,2.11
3868.0,2.07
3870.0,2.23
3872.0,2.39
3874.0,2.53
3876.0,2.31
3878.0,2.23
3880.0,2.17
3883.0,2.15
3884.0,2.04
3886.0,2.03
3888.0,2.1
3890.0,2.1
3892.0,2.09
3894.0,1.98
3896.0,1.76
3898.0,1.56
3900.0,1.38
3902.0,1.28
3904.0,1.35
3906.0,1.43
3908.0,1.35
3910.0,1.3
3912.0,1.32
3914.0,1.31
3916.0,1.41
3918.0,1.49
3920.0,1.46
3922.0,1.42
3924.0,1.47
3927.0,1.56
3928.0,1.6
3930.0,1.72
3932.0,1.79
3934.0,1.86
3936.0,1.75
3938.0,1.53
3940.0,1.43
3942.0,1.4
3944.0,1.38
3946.0,1.44
3948.0,1.48
3950.0,1.54
3952.0,1.57
3954.0,1.49
3956.0,1.58
3958.0,1.62
3960.0,1.65
3962.0,1.59
3964.0,1.64
3966.0,1.65
3969.0,1.65
3970.0,1.79
3972.0,1.88
3974.0,1.92
3976.0,1.92
3978.0,1.91
3980.0,2.05
3982.0,2.04
3984.0,2.06
3986.0,2.11
3988.0,2.07
3990.0,2.12
3992.0,1.98
3994.0,1.96
3996.0,2.15
3998.0,2.15
4000.0,2.15
4002.0,2.14
4004.0,2.2
4006.0,2.16
4008.0,2.16
4011.0,2.15
4013.0,2.07
4014.0,2.02
4016.0,2.13
4018.0,2.18
4020.0,2.14
4022.0,2.14
4024.0,2.23
4026.0,2.23
4028.0,2.17
4030.0,2.12
4032.0,2.09
4034.0,2.08
4036.0,2.1
4038.0,2.13
4040.0,2.17
4042.0,2.14
4044.0,2.19
4046.0,2.22
4048.0,2.17
4050.0,2.14
4052.0,2.12
4055.0,2.2
4056.0,2.25
4058.0,2.3
4060.0,2.24
4062.0,2.19
4064.0,2.28
4066.0,2.35
4068.0,2.44
4070.0,2.56
4072.0,2.56
4074.0,2.61
4076.0,2.65
4078.0,2.54
4080.0,2.47
4082.0,2.31
4084.0,2.25
4086.0,2.23
4088.0,2.21
4090.0,2.21
4092.0,2.23
4094.0,2.26
4097.0,2.14
4099.0,2.17
4100.0,2.23
4102.0,2.23
4104.0,2.34
4106.0,2.43
4108.0,2.36
4110.0,2.43
4112.0,2.32
4114.0,2.33
4116.0,2.35
4118.0,2.29
4120.0,2.27
4122.0,2.25
4124.0,2.28
4126.0,2.35
4128.0,2.3
4130.0,2.26
4132.0,2.26
4134.0,2.16
4136.0,2.15
4139.0,2.22
4141.0,2.23
4142.0,2.19
4144.0,2.25
4146.0,2.33
4148.0,2.35
4150.0,2.27
4152.0,2.26
4154.0,2.24
4156.0,2.19
4158.0,2.04
4160.0,2.03
4162.0,1.96
4164.0,2.01
4166.0,1.85
4168.0,1.77
4170.0,1.69
4172.0,1.76
4174.0,1.73
4176.0,1.72
4178.0,1.59
4180.0,1.5
4183.0,1.44
4185.0,1.58
4186.0,1.61
4188.0,1.56
4190.0,1.49
4192.0,1.52
4194.0,1.5
4196.0,1.51
4198.0,1.62
4200.0,1.7
4202.0,1.82
4204.0,1.91
4206.0,1.93
4208.0,1.8
4210.0,1.72
4212.0,1.71
4214.0,1.71
4216.0,1.63
4218.0,1.62
4220.0,1.67
4222.0,1.61
4225.0,1.57
4227.0,1.53
4228.0,1.53
4230.0,1.51
4232.0,1.49
4234.0,1.42
4236.0,1.41
4238.0,1.67
4240.0,1.87
4242.0,1.87
4244.0,1.88
4246.0,1.89
4248.0,1.86
4250.0,1.87
4252.0,1.83
4254.0,1.8
4256.0,1.71
4258.0,1.77
4260.0,1.74
4262.0,1.69
4264.0,1.76
4267.0,1.82
4269.0,1.84
4271.0,1.8
4272.0,1.83
4274.0,1.82
4276.0,1.74
4278.0,1.75
4280.0,1.77
4282.0,1.66
4284.0,1.66
4286.0,1.71
4288.0,1.62
4290.0,1.67
4292.0,1.63
4294.0,1.59
4296.0,1.55
4298.0,1.48
4300.0,1.38
4302.0,1.32
4304.0,1.38
4306.0,1.28
4308.0,1.23
4311.0,1.29
4313.0,1.18
4314.0,1.05
4316.0,1.08
4318.0,1.05
4320.0,0.97
4322.0,0.87
4324.0,0.85
4326.0,0.83
4328.0,0.83
4330.0,0.95
4332.0,0.99
4334.0,1.15
4336.0,1.18
4338.0,1.07
4340.0,1.04
4342.0,1.04
4344.0,1.06
4346.0,1.16
4348.0,1.15
4350.0,1.15
4353.0,1.23
4355.0,1.27
4357.0,1.26
4358.0,1.27
4360.0,1.29
4362.0,1.23
4364.0,1.28
4366.0,1.24
4368.0,1.35
4370.0,1.41
4372.0,1.35
4374.0,1.27
4376.0,1.36
4378.0,1.26
4380.0,1.26
4382.0,1.25
4384.0,1.35
4386.0,1.35
4388.0,1.33
4390.0,1.29
4392.0,1.21
4395.0,1.17
4397.0,1.19
4399.0,1.17
4400.0,1.24
4402.0,1.27
4404.0,1.36
4406.0,1.43
4408.0,1.47
4410.0,1.46
4412.0,1.4
4414.0,1.41
4416.0,1.43
4418.0,1.36
4420.0,1.42
4422.0,1.33
4424.0,1.36
4426.0,1.4
4428.0,1.42
4430.0,1.39
4432.0,1.43
4434.0,1.42
4436.0,1.46
4439.0,1.47
4441.0,1.42
4443.0,1.42
4444.0,1.38
4446.0,1.44
4448.0,1.41
4450.0,1.43
4452.0,1.42
4454.0,1.47
4456.0,1.47
4458.0,1.44
4460.0,1.49
4462.0,1.59
4464.0,1.68
4466.0,1.73
4468.0,1.74
4470.0,1.74
4472.0,1.66
4474.0,1.67
4476.0,1.69
4478.0,1.64
4481.0,1.55
4483.0,1.55
4485.0,1.57
4486.0,1.54
4488.0,1.58
4490.0,1.65
4492.0,1.66
4494.0,1.67
4496.0,1.69
4498.0,1.79
4500.0,1.88
4502.0,1.81
4504.0,1.89
4506.0,1.92
4508.0,1.91
4510.0,1.86
4512.0,1.83
4514.0,1.76
4516.0,1.68
4518.0,1.73
4520.0,1.8
4523.0,1.77
4525.0,1.85
4527.0,1.86
4529.0,1.81
4530.0,1.8
4532.0,1.86
4534.0,1.88
4536.0,1.9
4538.0,1.83
4540.0,1.75
4542.0,1.76
4544.0,1.94
4546.0,2.66
4548.0,2.97
4550.0,3.16
4552.0,3.19
4554.0,3.19
4556.0,3.08
4558.0,3.01
4560.0,2.88
4562.0,2.75
4564.0,2.75
4567.0,2.73
4569.0,2.73
4571.0,2.67
4572.0,2.55
4574.0,2.4
4576.0,2.25
4578.0,2.15
4580.0,2.01
4582.0,1.89
4584.0,1.93
4586.0,1.9
4588.0,1.86
4590.0,1.82
4592.0,1.91
4594.0,1.94
4596.0,1.91
4598.0,1.16
4600.0,0.27
4602.0,0.0
4604.0,0.0
4606.0,0.0
4609.0,0.0
4611.0,0.0
4613.0,0.0
4615.0,0.0
4616.0,0.0
4618.0,0.0
4620.0,0.0
4622.0,0.0
4624.0,0.07
4626.0,0.21
4628.0,0.21
4630.0,0.26
4632.0,0.27
4634.0,0.34
4636.0,0.23
4638.0,0.36
4640.0,0.44
4642.0,0.51
4644.0,0.6
4646.0,0.6
4648.0,0.59
4651.0,0.72
4653.0,0.7
4655.0,0.73
4657.0,0.66
4659.0,0.54
4660.0,0.5
4662.0,0.55
4664.0,0.69
4666.0,0.78
4668.0,0.76
4670.0,0.79
4672.0,0.76
4674.0,0.83
4676.0,0.87
4678.0,0.96
4680.0,0.91
4682.0,0.75
4684.0,0.67
4686.0,0.75
4688.0,0.88
4690.0,0.88
4692.0,0.91
4695.0,0.89
4697.0,0.8
4699.0,0.83
4701.0,0.89
4702.0,0.79
4704.0,0.85
4706.0,0.7
4708.0,0.56
4710.0,0.45
4712.0,0.48
4714.0,0.37
4716.0,0.33
4718.0,0.33
4720.0,0.36
4722.0,0.26
4724.0,0.33
4726.0,0.28
4728.0,0.31
4730.0,0.51
4732.0,0.7
4734.0,0.85
4737.0,0.6
4739.0,0.41
4741.0,0.27
4743.0,0.1
4745.0,0.13
4746.0,0.15
4748.0,0.22
4750.0,0.18
4752.0,0.16
4754.0,0.21
4756.0,0.32
4758.0,0.38
4760.0,0.41
4762.0,0.49
4764.0,0.59
4766.0,0.64
4768.0,0.66
4770.0,0.82
4772.0,0.87
4774.0,0.93
4776.0,0.94
4779.0,1.06
4781.0,1.08
4783.0,1.01
4785.0,1.03
4787.0,1.24
4789.0,1.49
4790.0,1.62
4792.0,1.57
4794.0,1.52
4796.0,1.54
4798.0,1.61
4800.0,1.54
4802.0,1.4
4804.0,1.54
4806.0,1.8
4808.0,1.83
4810.0,1.77
4812.0,1.74
4814.0,1.73
4816.0,1.73
4818.0,1.7
4820.0,1.54
4823.0,1.45
4825.0,1.41
4827.0,1.45
4829.0,1.36
4831.0,1.46
4833.0,1.5
4834.0,1.56
4836.0,1.56
4838.0,1.67
4840.0,1.68
4842.0,1.65
4844.0,1.65
4846.0,1.67
4848.0,1.72
4850.0,1.92
4852.0,2.01
4854.0,2.05
4856.0,1.96
4858.0,1.92
4860.0,1.84
4862.0,1.82
4865.0,1.86
4867.0,1.82
4869.0,1.88
4871.0,1.94
4873.0,1.97
4875.0,1.97
4876.0,1.92
4878.0,1.93
4880.0,1.99
4882.0,1.97
4884.0,2.11
4886.0,2.1
4888.0,2.11
4890.0,2.05
4892.0,1.93
4894.0,1.91
4896.0,1.89
4898.0,1.98
4900.0,2.08
4902.0,2.01
4904.0,2.06
4907.0,1.96
4909.0,1.92
4911.0,1.95
4913.0,1.95
4915.0,1.98
4917.0,1.93
4919.0,1.93
4920.0,1.99
4922.0,1.94
4924.0,1.98
4926.0,1.99
4928.0,2.11
4930.0,2.14
4932.0,2.11
4934.0,2.15
4936.0,2.15
4938.0,2.22
4940.0,2.22
4942.0,2.08
4944.0,2.13
4946.0,2.06
4948.0,2.07
4951.0,2.14
4953.0,2.04
4955.0,2.07
4957.0,1.94
4959.0,1.84
4961.0,1.86
4962.0,1.87
4964.0,1.92
4966.0,1.92
4968.0,1.9
4970.0,1.91
4972.0,1.85
4974.0,1.89
4976.0,1.81
4978.0,1.81
4980.0,1.91
4982.0,1.9
4984.0,1.91
4986.0,1.93
4988.0,1.85
4990.0,1.88
4993.0,1.89
4995.0,1.85
4997.0,1.79
4999.0,1.73
5001.0,1.66
5003.0,1.74
5005.0,1.79
5006.0,1.78
5008.0,1.69
5010.0,1.58
5012.0,1.57
5014.0,1.59
5016.0,1.59
5018.0,1.65
5020.0,1.63
5022.0,1.59
5024.0,1.63
5026.0,1.54
5028.0,1.52
5030.0,1.54
5032.0,1.61
5035.0,1.7
5037.0,1.65
5039.0,1.68
5041.0,1.62
5043.0,1.62
5045.0,1.63
5047.0,1.56
5049.0,1.55
5050.0,1.58
5052.0,1.55
5054.0,1.59
5056.0,1.58
5058.0,1.52
5060.0,1.42
5062.0,1.44
5064.0,1.56
5066.0,1.6
5068.0,1.67
5070.0,1.67
5072.0,1.61
5074.0,1.6
5076.0,1.55
5079.0,1.57
5081.0,1.56
5083.0,1.56
5085.0,1.57
5087.0,1.63
5089.0,1.6
5091.0,1.64
5092.0,1.59
5094.0,1.6
5096.0,1.6
5098.0,1.56
5100.0,1.55
5102.0,1.57
5104.0,1.84
5106.0,1.91
5108.0,1.83
5110.0,1.8
5112.0,1.74
5114.0,1.72
5116.0,1.71
5118.0,1.72
5121.0,1.62
5123.0,1.55
5125.0,1.64
5127.0,1.62
5129.0,1.61
5131.0,1.61
5133.0,1.6
5135.0,1.68
5137.0,1.63
5138.0,1.63
5140.0,1.64
5142.0,1.61
5144.0,1.63
5146.0,1.61
5148.0,1.57
5150.0,1.63
5152.0,1.62
5154.0,1.63
5156.0,1.53
5158.0,1.61
5160.0,1.65
5163.0,1.68
5165.0,1.68
5167.0,1.71
5169.0,1.67
5171.0,1.66
5173.0,1.68
5175.0,1.8
5177.0,1.79
5179.0,1.74
5180.0,1.79
5182.0,1.79
5184.0,1.83
5186.0,1.86
5188.0,1.83
5190.0,1.89
5192.0,1.87
5194.0,1.87
5196.0,1.79
5198.0,1.84
5200.0,1.83
5202.0,1.81
5204.0,1.88
5207.0,1.87
5209.0,1.84
5211.0,1.77
5213.0,1.75
5215.0,1.77
5217.0,1.73
5219.0,1.81
5221.0,1.74
5223.0,1.71
5224.0,1.72
5226.0,1.73
5228.0,1.75
5230.0,1.76
5232.0,1.68
5234.0,1.7
5236.0,1.71
5238.0,1.7
5240.0,1.68
5242.0,1.59
5244.0,1.58
5246.0,1.57
5249.0,1.63
5251.0,1.65
5253.0,1.6
5255.0,1.67
5257.0,1.73
5259.0,1.77
5261.0,1.73
5263.0,1.74
5265.0,1.75
5266.0,1.73
5268.0,1.69
5270.0,1.73
5272.0,1.67
5274.0,1.65
5276.0,1.56
5278.0,1.57
5280.0,1.55
5282.0,1.58
5284.0,1.65
5286.0,1.59
5288.0,1.52
5291.0,1.58
5293.0,1.61
5295.0,1.63
5297.0,1.66
5299.0,1.57
5301.0,1.56
5303.0,1.5
5305.0,1.56
5307.0,1.57
5309.0,1.59
5310.0,1.61
5312.0,1.64
5314.0,1.7
5316.0,1.65
5318.0,1.64
5320.0,1.59
5322.0,1.62
5324.0,1.65
5326.0,1.63
5328.0,1.65
5330.0,1.63
5332.0,1.58
5335.0,1.59
5337.0,1.46
5339.0,1.45
5341.0,1.43
5343.0,1.43
5345.0,1.46
5347.0,1.45
5349.0,1.39
5351.0,1.42
5352.0,1.41
5354.0,1.46
5356.0,1.47
5358.0,1.48
5360.0,1.42
5362.0,1.4
5364.0,1.42
5366.0,1.36
5368.0,1.36
5370.0,1.39
5372.0,1.39
5374.0,1.47
5377.0,1.38
5379.0,1.35
5381.0,1.32
5383.0,1.34
5385.0,1.25
5387.0,1.28
5389.0,1.14
5391.0,1.17
5393.0,1.12
5395.0,1.16
5396.0,1.15
5398.0,1.25
5400.0,1.29
5402.0,1.32
5404.0,1.31
5406.0,1.38
5408.0,1.39
5410.0,1.35
5412.0,1.32
5414.0,1.34
5416.0,1.36
5419.0,1.35
5421.0,1.35
5423.0,1.34
5425.0,1.38
5427.0,1.33
5429.0,1.34
5431.0,1.34
5433.0,1.35
5435.0,1.41
5437.0,1.4
5438.0,1.39
5440.0,1.31
5442.0,1.28
5444.0,1.27
5446.0,1.28
5448.0,1.33
5450.0,1.31
5452.0,1.24
5454.0,1.2
5456.0,1.26
5458.0,1.23
5460.0,1.15
5463.0,1.12
5465.0,1.23
5467.0,1.34
5469.0,1.42
5471.0,1.44
5473.0,1.4
5475.0,1.41
5477.0,1.37
5479.0,1.32
5481.0,1.29
5482.0,1.31
5484.0,1.33
5486.0,1.38
5488.0,1.33
5490.0,1.31
5492.0,1.32
5494.0,1.36
5496.0,1.42
5498.0,1.48
5500.0,1.35
5502.0,1.35
5505.0,1.38
5507.0,1.43
5509.0,1.35
5511.0,1.35
5513.0,1.3
5515.0,1.32
5517.0,1.28
5519.0,1.34
5521.0,1.21
5523.0,1.22
5524.0,1.26
5526.0,1.25
5528.0,1.26
5530.0,1.29
5532.0,1.26
5534.0,1.31
5536.0,1.27
5538.0,1.28
5540.0,1.15
5542.0,1.12
5544.0,1.09
5547.0,1.1
5549.0,1.12
5551.0,1.2
5553.0,1.15
5555.0,1.1
5557.0,1.04
5559.0,1.03
5561.0,1.06
5563.0,1.1
5565.0,1.13
5567.0,1.22
5568.0,1.26
5570.0,1.23
5572.0,1.16
5574.0,1.15
5576.0,1.17
5578.0,1.21
5580.0,1.15
5582.0,1.11
5584.0,1.1
5586.0,1.11
5588.0,1.11
5591.0,1.14
5593.0,1.17
5595.0,1.14
5597.0,1.04
5599.0,1.03
5601.0,1.03
5603.0,1.07
5605.0,1.06
5607.0,1.0
5609.0,1.05
5611.0,1.08
5612.0,1.05
5614.0,1.05
5616.0,1.04
5618.0,1.02
5620.0,0.96
5622.0,1.01
5624.0,1.19
5626.0,1.15
5628.0,1.2
5630.0,1.21
5633.0,1.24
5635.0,1.38
5637.0,1.32
5639.0,1.19
5641.0,1.2
5643.0,1.23
5645.0,1.28
5647.0,1.26
5649.0,1.4
5651.0,1.49
5653.0,1.51
5654.0,1.54
5656.0,1.41
5658.0,1.37
5660.0,1.3
5662.0,1.38
5664.0,1.61
5666.0,1.65
5668.0,1.56
5670.0,1.46
5672.0,1.36
5675.0,1.36
5677.0,1.28
5679.0,1.18
5681.0,1.09
5683.0,1.17
5685.0,1.2
5687.0,1.31
5689.0,1.23
5691.0,1.19
5693.0,1.19
5695.0,1.29
5697.0,1.2
5698.0,1.14
5700.0,1.06
5702.0,1.18
5704.0,1.23
5706.0,1.05
5708.0,0.94
5710.0,1.08
5712.0,1.22
5714.0,1.34
5716.0,1.31
5719.0,1.25
5721.0,1.19
5723.0,1.09
5725.0,1.03
5727.0,1.06
5729.0,1.07
5731.0,1.14
5733.0,1.19
5735.0,1.26
5737.0,1.2
5739.0,1.21
5741.0,1.15
5742.0,1.12
5744.0,1.08
5746.0,1.14
5748.0,1.09
5750.0,1.03
5752.0,0.88
5754.0,1.07
5756.0,1.29
5758.0,1.42
5761.0,1.34
5763.0,1.31
5765.0,1.33
5767.0,1.43
5769.0,1.49
5771.0,1.5
5773.0,1.5
5775.0,1.62
5777.0,1.62
5779.0,1.51
5781.0,1.45
5783.0,1.46
5785.0,1.4
5786.0,1.5
5788.0,1.56
5790.0,1.52
5792.0,1.55
5794.0,1.61
5796.0,1.5
5798.0,1.54
5800.0,1.62
5803.0,1.66
5805.0,1.76
5807.0,1.76
5809.0,1.77
5811.0,1.8
5813.0,1.75
5815.0,1.62
5817.0,1.54
5819.0,1.58
5821.0,1.46
5823.0,1.45
5825.0,1.39
5827.0,1.32
5828.0,1.43
5830.0,1.54
5832.0,1.64
5834.0,1.7
5836.0,1.66
5838.0,1.57
5840.0,1.55
5842.0,1.59
5844.0,1.67
5847.0,1.62
5849.0,1.64
5851.0,1.85
5853.0,1.98
5855.0,2.03
5857.0,2.01
5859.0,1.82
5861.0,1.79
5863.0,1.85
5865.0,1.91
5867.0,2.04
5869.0,2.19
5871.0,2.2
5872.0,2.13
5874.0,2.1
5876.0,2.08
5878.0,2.05
5880.0,1.88
5882.0,1.83
5884.0,1.81
5886.0,1.81
5889.0,1.93
5891.0,2.03
5893.0,2.04
5895.0,2.01
5897.0,1.91
5899.0,1.94
5901.0,1.98
5903.0,2.16
5905.0,2.29
5907.0,2.35
5909.0,2.34
5911.0,2.32
5913.0,2.3
5914.0,2.31
5916.0,2.23
5918.0,2.13
5920.0,2.04
5922.0,1.99
5924.0,2.08
5926.0,2.08
5928.0,2.02
5931.0,1.97
5933.0,1.84
5935.0,1.89
5937.0,1.9
5939.0,1.83
5941.0,1.72
5943.0,1.68
5945.0,1.64
5947.0,1.56
5949.0,1.48
5951.0,1.33
5953.0,1.26
5955.0,1.2
5957.0,1.17
5958.0,1.21
5960.0,1.16
5962.0,1.16
5964.0,1.15
5966.0,1.04
5968.0,1.11
5970.0,1.21
5972.0,1.3
5975.0,1.24
5977.0,1.22
5979.0,1.26
5981.0,1.33
5983.0,1.41
5985.0,1.45
5987.0,1.42
5989.0,1.37
5991.0,1.34
5993.0,1.38
5995.0,1.4
5997.0,1.52
5999.0,1.55
6001.0,1.45
6002.0,1.55
6004.0,1.61
6006.0,1.52
6008.0,1.56
6010.0,1.45
6012.0,1.39
6014.0,1.36
6017.0,1.37
6019.0,1.31
6021.0,1.36
6023.0,1.44
6025.0,1.41
6027.0,1.44
6029.0,1.46
6031.0,1.47
6033.0,1.48
6035.0,1.56
6037.0,1.58
6039.0,1.51
6041.0,1.39
6043.0,1.35
6044.0,1.35
6046.0,1.31
6048.0,1.37
6050.0,1.36
6052.0,1.39
6054.0,1.47
6056.0,1.47
6059.0,1.5
6061.0,1.39
6063.0,1.4
6065.0,1.38
6067.0,1.39
6069.0,1.37
6071.0,1.36
6073.0,1.47
6075.0,1.49
6077.0,1.43
6079.0,1.4
6081.0,1.34
6083.0,1.43
6085.0,1.44
6087.0,1.36
6088.0,1.39
6090.0,1.5
6092.0,1.52
6094.0,1.55
6096.0,1.5
6098.0,1.43
6100.0,1.47
6103.0,1.74
6105.0,1.79
6107.0,1.91
6109.0,1.87
6111.0,1.63
6113.0,1.54
6115.0,1.63
6117.0,1.63
6119.0,1.73
6121.0,1.77
6123.0,1.85
6125.0,1.77
6127.0,1.78
6129.0,1.78
6131.0,1.72
6132.0,1.77
6134.0,1.94
6136.0,2.06
6138.0,2.15
6140.0,2.14
6142.0,2.25
6145.0,2.33
6147.0,2.37
6149.0,2.39
6151.0,2.36
6153.0,2.3
6155.0,2.25
6157.0,2.21
6159.0,2.18
6161.0,2.18
6163.0,2.26
6165.0,2.26
6167.0,2.18
6169.0,2.19
6171.0,2.14
6173.0,2.24
6174.0,2.25
6176.0,2.23
6178.0,2.16
6180.0,2.09
6182.0,2.13
6184.0,2.18
6187.0,2.14
6189.0,2.1
6191.0,2.04
6193.0,2.0
6195.0,1.98
6197.0,1.93
6199.0,1.85
6201.0,1.73
6203.0,1.75
6205.0,1.75
6207.0,1.63
6209.0,1.57
6211.0,1.48
6213.0,1.42
6215.0,1.45
6217.0,1.41
6218.0,1.4
6220.0,1.37
6222.0,1.46
6224.0,1.38
6226.0,1.39
6228.0,1.5
6231.0,1.46
6233.0,1.43
6235.0,1.17
6237.0,0.68
6239.0,0.54
6241.0,0.31
6243.0,0.25
6245.0,0.24
6247.0,0.18
6249.0,0.35
6251.0,0.45
6253.0,0.46
6255.0,0.45
6257.0,0.48
6259.0,0.46
6261.0,0.37
6262.0,0.46
6264.0,0.44
6266.0,0.45
6268.0,0.52
6270.0,0.55
6273.0,0.63
6275.0,0.75
6277.0,0.72
6279.0,0.78
6281.0,0.78
6283.0,0.91
6285.0,0.99
6287.0,1.09
6289.0,1.08
6291.0,1.16
6293.0,1.17
6295.0,1.15
6297.0,1.15
6299.0,1.14
6301.0,1.08
6303.0,1.11
6305.0,1.21
6306.0,1.25
6308.0,1.24
6310.0,1.22
6312.0,1.22
6315.0,1.24
6317.0,1.25
6319.0,1.25
6321.0,1.18
6323.0,1.18
6325.0,1.19
6327.0,1.24
6329.0,1.27
6331.0,1.26
6333.0,1.28
6335.0,1.27
6337.0,1.33
6339.0,1.39
6341.0,1.37
6343.0,1.45
6345.0,1.47
6347.0,1.45
6349.0,1.63
6350.0,1.62
6352.0,1.61
6354.0,1.63
6356.0,1.6
6359.0,1.53
6361.0,1.54
6363.0,1.6
6365.0,1.64
6367.0,1.66
6369.0,1.66
6371.0,1.6
6373.0,1.61
6375.0,1.49
6377.0,1.44
6379.0,1.5
6381.0,1.43
6383.0,1.47
6385.0,1.5
6387.0,1.51
6389.0,1.42
6391.0,1.3
6393.0,1.27
6394.0,1.21
6396.0,1.22
6398.0,1.23
6401.0,1.15
6403.0,1.22
6405.0,1.25
6407.0,1.21
6409.0,1.2
6411.0,1.19
6413.0,1.2
6415.0,1.19
6417.0,1.15
6419.0,1.16
6421.0,1.14
6423.0,1.25
6425.0,1.26
6427.0,1.28
6429.0,1.31
6431.0,1.3
6433.0,1.36
6435.0,1.37
6436.0,1.37
6438.0,1.35
6440.0,1.29
6443.0,1.32
6445.0,1.31
6447.0,1.28
6449.0,1.27
6451.0,1.26
6453.0,1.25
6455.0,1.28
6457.0,1.21
6459.0,1.23
6461.0,1.27
6463.0,1.32
6465.0,1.35
6467.0,1.44
6469.0,1.46
6471.0,1.46
6473.0,1.45
6475.0,1.42
6477.0,1.36
6479.0,1.33
6480.0,1.31
6482.0,1.43
6484.0,1.6
6487.0,1.66
6489.0,1.76
6491.0,1.69
6493.0,1.67
6495.0,1.7
6497.0,1.69
6499.0,1.68
6501.0,1.63
6503.0,1.68
6505.0,1.66
6507.0,1.56
6509.0,1.55
6511.0,1.5
6513.0,1.53
6515.0,1.52
6517.0,1.49
6519.0,1.45
6521.0,1.36
6523.0,1.42
6524.0,1.46
6526.0,1.6
6529.0,1.57
6531.0,1.52
6533.0,1.57
6535.0,1.55
6537.0,1.54
6539.0,1.51
6541.0,1.42
6543.0,1.5
6545.0,1.51
6547.0,1.48
6549.0,1.4
6551.0,1.38
6553.0,1.35
6555.0,1.37
6557.0,1.45
6559.0,1.41
6561.0,1.42
6563.0,1.5
6565.0,1.53
6566.0,1.46
6568.0,1.46
6571.0,1.37
6573.0,1.39
6575.0,1.39
6577.0,1.47
6579.0,1.39
6581.0,1.27
6583.0,1.35
6585.0,1.3
6587.0,1.25
6589.0,1.26
6591.0,1.19
6593.0,1.25
6595.0,1.25
6597.0,1.29
6599.0,1.31
6601.0,1.25
6603.0,1.29
6605.0,1.29
6607.0,1.31
6608.0,1.33
6610.0,1.25
6612.0,1.27
6615.0,1.38
6617.0,1.35
6619.0,1.38
6621.0,1.37
6623.0,1.36
6625.0,1.31
6627.0,1.29
6629.0,1.31
6631.0,1.36
6633.0,1.38
6635.0,1.38
6637.0,1.39
6639.0,1.37
6641.0,1.25
6643.0,1.26
6645.0,1.19
6647.0,1.14
6649.0,1.18
6651.0,1.14
6652.0,1.2
6654.0,1.21
6657.0,1.23
6659.0,1.2
6661.0,1.08
6663.0,1.12
6665.0,1.15
6667.0,1.19
6669.0,1.3
6671.0,1.32
6673.0,1.34
6675.0,1.35
6677.0,1.24
6679.0,1.43
6681.0,1.47
6683.0,1.47
6685.0,1.42
6687.0,1.37
6689.0,1.35
6691.0,1.31
6693.0,1.3
6695.0,1.26
6696.0,1.34
6699.0,1.31
6701.0,1.32
6703.0,1.39
6705.0,1.49
6707.0,1.53
6709.0,1.46
6711.0,1.37
6713.0,1.35
6715.0,1.39
6717.0,1.4
6719.0,1.44
6721.0,1.42
6723.0,1.48
6725.0,1.46
6727.0,1.39
6729.0,1.43
6731.0,1.47
6733.0,1.49
6735.0,1.5
6737.0,1.57
6739.0,1.59
6740.0,1.6
6743.0,1.64
6745.0,1.61
6747.0,1.63
6749.0,1.66
6751.0,1.65
6753.0,1.81
6755.0,1.82
6757.0,1.79
6759.0,1.75
6761.0,1.8
6763.0,1.86
6765.0,1.88
6767.0,1.79
6769.0,1.79
6771.0,1.69
6773.0,1.68
6775.0,1.68
6777.0,1.65
6779.0,1.59
6781.0,1.53
6782.0,1.63
6785.0,1.66
6787.0,1.7
6789.0,1.7
6791.0,1.63
6793.0,1.5
6795.0,1.47
6797.0,1.51
6799.0,1.45
6801.0,1.31
6803.0,1.32
6805.0,1.25
6807.0,1.21
6809.0,1.1
6811.0,1.1
6813.0,1.13
6815.0,1.2
6817.0,1.1
6819.0,0.95
6821.0,0.83
6823.0,0.95
6825.0,0.99
6827.0,1.05
6829.0,1.09
6831.0,1.11
6833.0,1.06
6835.0,1.06
6837.0,0.99
6839.0,1.04
6841.0,0.99
6843.0,1.04
6845.0,0.99
6847.0,1.04
6849.0,1.06
6851.0,1.09
6853.0,1.17
6855.0,1.15
6857.0,1.17
6859.0,1.25
6861.0,1.27
6863.0,1.28
6865.0,1.38
6867.0,1.45
6868.0,1.51
6871.0,1.46
6873.0,1.4
6875.0,1.45
6877.0,1.52
6879.0,1.5
6881.0,1.5
6883.0,1.53
6885.0,1.61
6887.0,1.55
6889.0,1.61
6891.0,1.57
6893.0,1.61
6895.0,1.64
6897.0,1.79
6899.0,1.7
6901.0,1.67
6903.0,1.75
6905.0,1.73
6907.0,1.75
6909.0,1.72
6912.0,1.64
6913.0,1.68
6915.0,1.68
6917.0,1.63
6919.0,1.55
6921.0,1.44
6923.0,1.5
6925.0,1.49
6927.0,1.58
6929.0,1.7
6931.0,1.72
6933.0,1.74
6935.0,1.75
6937.0,1.76
6939.0,1.79
6941.0,1.67
6943.0,1.54
6945.0,1.53
6947.0,1.56
6949.0,1.6
6951.0,1.49
6953.0,1.48
6956.0,1.44
6957.0,1.43
6959.0,1.35
6961.0,1.28
6963.0,1.37
6965.0,1.42
6967.0,1.39
6969.0,1.36
6971.0,1.4
6973.0,1.47
6975.0,1.49
6977.0,1.44
6979.0,1.47
6981.0,1.51
6983.0,1.6
6985.0,1.63
6987.0,1.69
6989.0,1.65
6991.0,1.51
6993.0,1.43
6995.0,1.42
6998.0,1.53
6999.0,1.58
7001.0,1.59
7003.0,1.69
7005.0,1.67
7007.0,1.62
7009.0,1.59
7011.0,1.61
7013.0,1.56
7015.0,1.46
7017.0,1.48
7019.0,1.63
7021.0,1.62
7023.0,1.64
7025.0,1.6
7027.0,1.62
7029.0,1.61
7031.0,1.61
7033.0,1.65
7035.0,1.62
7037.0,1.66
7040.0,1.72
7042.0,1.72
7043.0,1.69
7045.0,1.6
7047.0,1.56
7049.0,1.62
7051.0,1.58
7053.0,1.55
7055.0,1.49
7057.0,1.47
7059.0,1.41
7061.0,1.45
7063.0,1.48
7065.0,1.48
7067.0,1.6
7069.0,1.73
7071.0,1.7
7073.0,1.7
7075.0,1.6
7077.0,1.59
7079.0,1.61
7081.0,1.68
7084.0,1.67
7086.0,1.62
7087.0,1.6
7089.0,1.72
7091.0,1.74
7093.0,1.77
7095.0,1.82
7097.0,1.81
7099.0,1.72
7101.0,1.68
7103.0,1.66
7105.0,1.79
7107.0,1.72
7109.0,1.68
7111.0,1.65
7113.0,1.75
7115.0,1.64
7117.0,1.67
7119.0,1.59
7121.0,1.5
7123.0,1.6
7126.0,1.69
7128.0,1.7
7129.0,1.71
7131.0,1.63
7133.0,1.68
7135.0,1.6
7137.0,1.54
7139.0,1.46
7141.0,1.44
7143.0,1.42
7145.0,1.45
7147.0,1.48
7149.0,1.52
7151.0,1.54
7153.0,1.55
7155.0,1.59
7157.0,1.58
7159.0,1.5
7161.0,1.55
7163.0,1.6
7165.0,1.55
7168.0,1.53
7170.0,1.48
7172.0,1.44
7173.0,1.48
7175.0,1.48
7177.0,1.42
7179.0,1.54
7181.0,1.61
7183.0,1.71
7185.0,1.73
7187.0,1.77
7189.0,1.76
7191.0,1.74
7193.0,1.68
7195.0,1.69
7197.0,1.68
7199.0,1.69
7201.0,1.7
7203.0,1.76
7205.0,1.71
7207.0,1.69
7209.0,1.67
7212.0,1.65
7214.0,1.66
7216.0,1.63
7217.0,1.65
7219.0,1.62
7221.0,1.63
7223.0,1.7
7225.0,1.62
7227.0,1.62
7229.0,1.66
7231.0,1.71
7233.0,1.82
7235.0,1.8
7237.0,1.78
7239.0,1.77
7241.0,1.74
7243.0,1.71
7245.0,1.75
7247.0,1.8
7249.0,1.86
7251.0,1.8
7254.0,1.87
7256.0,1.82
7258.0,1.8
7259.0,1.72
7261.0,1.72
7263.0,1.72
7265.0,1.72
7267.0,1.74
7269.0,1.7
7271.0,1.65
7273.0,1.69
7275.0,1.61
7277.0,1.64
7279.0,1.66
7281.0,1.66
7283.0,1.71
7285.0,1.72
7287.0,1.73
7289.0,1.75
7291.0,1.74
7293.0,1.72
7296.0,1.65
7298.0,1.77
7300.0,1.69
7302.0,1.7
7303.0,1.78
7305.0,1.67
7307.0,1.67
7309.0,1.64
7311.0,1.59
7313.0,1.6
7315.0,1.51
7317.0,1.51
7319.0,1.4
7321.0,1.44
7323.0,1.46
7325.0,1.46
7327.0,1.47
7329.0,1.55
7331.0,1.5
7333.0,1.52
7335.0,1.42
7337.0,1.4
7340.0,1.39
7342.0,1.4
7344.0,1.42
7346.0,1.45
7347.0,1.54
7349.0,1.52
7351.0,1.59
7353.0,1.64
7355.0,1.59
7357.0,1.62
7359.0,1.49
7361.0,1.49
7363.0,1.55
7365.0,1.54
7367.0,1.56
7369.0,1.55
7371.0,1.57
7373.0,1.6
7375.0,1.47
7377.0,1.46
7379.0,1.45
7382.0,1.5
7384.0,1.62
7386.0,1.64
7388.0,1.66
7390.0,1.68
7391.0,1.59
7393.0,1.53
7395.0,1.49
7397.0,1.48
7399.0,1.46
7401.0,1.5
7403.0,1.51
7405.0,1.52
7407.0,1.49
7409.0,1.45
7411.0,1.44
7413.0,1.53
7415.0,1.49
7417.0,1.52
7419.0,1.48
7421.0,1.49
7424.0,1.51
7426.0,1.48
7428.0,1.45
7430.0,1.48
7432.0,1.48
7433.0,1.51
7435.0,1.43
7437.0,1.43
7439.0,1.38
7441.0,1.4
7443.0,1.37
7445.0,1.41
7447.0,1.37
7449.0,1.43
7451.0,1.45
7453.0,1.45
7455.0,1.44
7457.0,1.43
7459.0,1.31
7461.0,1.34
7463.0,1.39
7465.0,1.4
7468.0,1.43
7470.0,1.53
7472.0,1.65
7474.0,1.65
7476.0,1.69
7477.0,1.7
7479.0,1.7
7481.0,1.74
7483.0,1.84
7485.0,1.93
7487.0,2.11
7489.0,2.06
7491.0,1.94
7493.0,1.84
7495.0,1.79
7497.0,1.78
7499.0,1.7
7501.0,1.65
7503.0,1.57
7505.0,1.57
7507.0,1.55
7510.0,1.42
7512.0,1.45
7514.0,1.45
7516.0,1.28
7518.0,1.23
7520.0,1.15
7522.0,1.07
7523.0,1.1
7525.0,1.06
7527.0,1.02
7529.0,0.94
7531.0,0.89
7533.0,0.85
7535.0,0.97
7537.0,1.07
7539.0,1.05
7541.0,1.02
7543.0,1.04
7545.0,0.99
7547.0,1.01
7549.0,0.93
7552.0,0.81
7554.0,0.65
7556.0,0.74
7558.0,0.89
7560.0,0.76
7562.0,0.58
7564.0,0.56
7566.0,0.46
7567.0,0.27
7569.0,0.32
7571.0,0.51
7573.0,0.54
7575.0,0.37
7577.0,0.07
7579.0,0.2
7581.0,0.46
7583.0,0.39
7585.0,0.0
7587.0,0.0
7589.0,0.0
7591.0,0.23
7593.0,0.28
7596.0,0.35
7598.0,0.42
7600.0,0.34
7602.0,0.0
7604.0,0.0
7606.0,0.0
7608.0,0.0
7610.0,0.46
7611.0,1.05
7613.0,0.13
7615.0,0.0
7617.0,0.0
7619.0,0.0
7621.0,0.0
7623.0,0.0
7625.0,0.0
7627.0,0.0
7629.0,0.0
7631.0,0.0
7633.0,0.0
7635.0,0.0
7638.0,0.0
7640.0,0.0
7642.0,0.0
7644.0,0.0
7646.0,0.0
7648.0,0.0
7650.0,0.0
7652.0,0.0
7654.0,0.0
7655.0,0.0
7657.0,0.0
7659.0,0.0
7661.0,0.0
7663.0,0.0
7665.0,0.0
7667.0,0.0
7669.0,0.0
7671.0,0.06
7673.0,0.37
7675.0,1.15
7677.0,1.96
7680.0,2.56
7682.0,2.59
7684.0,2.68
7686.0,2.8
7688.0,2.53
7690.0,2.59
7692.0,2.89
7694.0,2.97
7696.0,3.15
7698.0,3.3
7699.0,3.3
7701.0,3.3
7703.0,3.3
7705.0,3.3
7707.0,3.3
7709.0,3.3
7711.0,3.3
7713.0,3.3
7715.0,3.3
7717.0,3.3
7719.0,3.3
7721.0,3.3
7724.0,3.3
7726.0,3.15
7728.0,3.08
7730.0,3.18
7732.0,3.14
7734.0,2.99
7736.0,2.83
7738.0,2.63
7740.0,2.48
7742.0,2.26
7743.0,1.98
7745.0,1.9
7747.0,2.06
7749.0,2.05
7751.0,2.01
7753.0,1.97
7755.0,1.96
7757.0,2.03
7759.0,1.98
7761.0,2.15
7763.0,2.28
7766.0,2.3
7768.0,2.29
7770.0,2.25
7772.0,2.14
7774.0,2.05
7776.0,2.0
7778.0,1.93
7780.0,1.96
7782.0,2.07
7784.0,2.1
7786.0,2.11
7787.0,2.24
7789.0,2.31
7791.0,2.34
7793.0,2.47
7795.0,2.49
7797.0,2.55
7799.0,2.42
7801.0,2.34
7803.0,2.23
7805.0,2.11
7808.0,2.23
7810.0,3.02
7812.0,3.3
7814.0,3.3
7816.0,3.3
7818.0,3.25
7820.0,3.15
7822.0,3.21
7824.0,3.3
7826.0,3.2
7828.0,3.17
7829.0,3.2
7831.0,3.1
7833.0,3.0
7835.0,2.91
7837.0,2.5
7839.0,2.14
7841.0,1.92
7843.0,1.82
7845.0,1.91
7847.0,1.89
7849.0,1.85
7852.0,1.67
7854.0,1.44
7856.0,1.09
7858.0,1.0
7860.0,1.01
7862.0,0.98
7864.0,0.9
7866.0,1.01
7868.0,1.3
7870.0,1.3
7872.0,1.33
7873.0,1.32
7875.0,1.17
7877.0,1.22
7879.0,1.22
7881.0,1.45
7883.0,1.64
7885.0,1.71
7887.0,1.65
7889.0,1.07
7891.0,0.92
7894.0,0.91
7896.0,0.85
7898.0,0.88
7900.0,0.96
7902.0,1.03
7904.0,1.1
7906.0,0.99
7908.0,0.97
7910.0,0.9
7912.0,0.68
7914.0,0.48
7916.0,0.49
7917.0,0.53
7919.0,0.79
7921.0,0.97
7923.0,0.8
7925.0,0.69
7927.0,0.7
7929.0,0.85
7931.0,0.87
7933.0,0.65
7936.0,0.63
7938.0,0.59
7940.0,0.5
7942.0,0.47
7944.0,0.62
7946.0,0.72
7948.0,0.77
7950.0,0.69
7952.0,0.64
7954.0,0.69
7956.0,0.8
7958.0,1.05
7960.0,1.25
7961.0,1.38
7963.0,1.52
7965.0,1.65
7967.0,1.82
7969.0,1.71
7971.0,1.65
7973.0,1.54
7975.0,1.52
7977.0,1.59
7980.0,1.63
7982.0,1.68
7984.0,1.61
7986.0,1.73
7988.0,1.93
7990.0,1.98
7992.0,1.97
7994.0,1.96
7996.0,2.21
7998.0,2.63
8000.0,2.79
8002.0,3.05
8004.0,3.3
8005.0,3.3
8007.0,3.3
8009.0,3.3
8011.0,3.3
8013.0,3.1
8015.0,3.01
8017.0,3.14
8019.0,3.03
8022.0,3.19
8024.0,3.24
8026.0,3.25
8028.0,3.3
8030.0,3.3
8032.0,3.3
8034.0,3.3
8036.0,3.3
8038.0,3.3
8040.0,3.3
8042.0,3.3
8044.0,3.3
8046.0,3.3
8047.0,3.3
8049.0,3.3
8051.0,3.3
8053.0,3.3
8055.0,3.3
8057.0,3.3
8059.0,3.3
8061.0,3.3
8064.0,3.3
8066.0,3.3
8068.0,3.13
8070.0,2.89
8072.0,2.84
8074.0,2.57
8076.0,2.3
8078.0,2.38
8080.0,2.22
8082.0,2.35
8084.0,2.15
8086.0,1.88
8088.0,1.92
8090.0,1.79
8091.0,1.91
8093.0,1.71
8095.0,1.35
8097.0,1.51
8099.0,1.34
8101.0,1.14
8103.0,1.36
8105.0,1.19
8108.0,1.0
8110.0,1.1
8112.0,1.0
8114.0,0.84
8116.0,0.84
8118.0,1.03
8120.0,1.28
8122.0,1.5
8124.0,1.28
8126.0,1.19
8128.0,1.26
8130.0,1.14
8132.0,1.32
8133.0,1.45
8135.0,1.16
8137.0,0.99
8139.0,0.85
8141.0,0.96
8143.0,1.21
8145.0,1.23
8147.0,1.08
8150.0,0.75
8152.0,0.64
8154.0,0.57
8156.0,0.58
8158.0,0.8
8160.0,0.96
8162.0,1.05
8164.0,0.97
8166.0,0.96
8168.0,0.85
8170.0,0.74
8172.0,0.75
8174.0,0.85
8176.0,0.83
8177.0,0.8
8179.0,0.89
8181.0,1.21
8183.0,1.28
8185.0,1.25
8187.0,1.45
8189.0,1.74
8192.0,1.8
8194.0,1.73
8196.0,1.64
8198.0,1.6
8200.0,1.45
8202.0,1.59
8204.0,1.58
8206.0,1.54
8208.0,1.44
8210.0,1.35
8212.0,1.25
8214.0,1.26
8216.0,1.2
8218.0,1.12
8219.0,1.08
8221.0,1.1
8223.0,1.03
8225.0,1.02
8227.0,0.98
8229.0,0.95
8231.0,1.0
8233.0,0.94
8236.0,0.89
8238.0,1.0
8240.0,1.05
8242.0,1.07
8244.0,1.13
8246.0,1.17
8248.0,1.12
8250.0,1.11
8252.0,1.21
8254.0,1.27
8256.0,1.17
8258.0,1.13
8260.0,1.1
8262.0,1.12
8263.0,1.24
8265.0,1.26
8267.0,1.35
8269.0,1.26
8271.0,1.21
8273.0,1.16
8275.0,1.13
8278.0,1.18
8280.0,1.14
8282.0,1.18
8284.0,1.18
8286.0,1.26
8288.0,1.35
8290.0,1.23
8292.0,1.06
8294.0,0.88
8296.0,0.87
8298.0,0.95
8300.0,0.92
8302.0,1.06
8304.0,1.17
8306.0,1.11
8307.0,1.02
8309.0,0.96
8311.0,1.04
8313.0,0.99
8315.0,0.89
8317.0,0.87
8320.0,0.74
8322.0,0.72
8324.0,0.72
8326.0,0.88
8328.0,0.9
8330.0,0.94
8332.0,1.03
8334.0,1.14
8336.0,1.13
8338.0,1.13
8340.0,1.13
8342.0,1.14
8344.0,1.14
8346.0,1.16
8348.0,1.15
8350.0,1.07
8351.0,1.21
8353.0,1.24
8355.0,1.27
8357.0,1.37
8359.0,1.39
8361.0,1.55
8364.0,1.47
8366.0,1.4
8368.0,1.36
8370.0,1.35
8372.0,1.31
8374.0,1.36
8376.0,1.35
8378.0,1.23
8380.0,1.16
8382.0,1.16
8384.0,1.22
8386.0,1.27
8388.0,1.33
8390.0,1.37
8392.0,1.41
8393.0,1.41
8395.0,1.43
8397.0,1.37
8399.0,1.33
8401.0,1.38
8403.0,1.34
8406.0,1.39
8408.0,1.44
8410.0,1.45
8412.0,1.51
8414.0,1.55
8416.0,1.65
8418.0,1.79
8420.0,1.89
8422.0,1.85
8424.0,1.82
8426.0,1.9
8428.0,1.88
8430.0,1.88
8432.0,1.86
8434.0,1.75
8436.0,1.58
8437.0,1.54
8439.0,1.57
8441.0,1.54
8443.0,1.52
8445.0,1.5
8448.0,1.5
8450.0,1.4
8452.0,1.33
8454.0,1.26
8456.0,1.21
8458.0,1.24
8460.0,1.3
8462.0,1.29
8464.0,1.19
8466.0,1.17
8468.0,1.16
8470.0,1.32
8472.0,1.33
8474.0,1.27
8476.0,1.28
8478.0,1.25
8480.0,1.2
8481.0,1.15
8483.0,1.17
8485.0,1.23
8487.0,1.23
8489.0,1.26
8492.0,1.31
8494.0,1.13
8496.0,1.01
8498.0,0.97
8500.0,0.98
8502.0,1.01
8504.0,1.06
8506.0,1.09
8508.0,1.1
8510.0,1.05
8512.0,0.95
8514.0,0.89
8516.0,0.9
8518.0,0.87
8520.0,0.88
8522.0,0.87
8523.0,0.93
8525.0,0.96
8527.0,0.94
8529.0,0.87
8531.0,0.87
8534.0,0.95
8536.0,1.3
8538.0,1.37
8540.0,1.44
8542.0,1.44
8544.0,1.24
8546.0,1.28
8548.0,1.22
8550.0,1.1
8552.0,0.96
8554.0,0.97
8556.0,1.02
8558.0,1.11
8560.0,1.09
8562.0,0.95
8564.0,0.84
8566.0,0.8
8567.0,0.63
8569.0,0.5
8571.0,0.54
8573.0,0.68
8576.0,0.89
8578.0,0.92
8580.0,0.84
8582.0,0.75
8584.0,0.63
8586.0,0.55
8588.0,0.55
8590.0,0.55
8592.0,0.58
8594.0,0.54
8596.0,0.47
8598.0,0.61
8600.0,0.66
8602.0,0.63
8604.0,0.67
8606.0,0.78
8608.0,0.75
8610.0,0.68
8611.0,0.71
8613.0,0.72
8615.0,0.64
8617.0,0.58
8620.0,0.67
8622.0,0.85
8624.0,1.03
8626.0,1.08
8628.0,0.9
8630.0,0.91
8632.0,1.09
8634.0,1.27
8636.0,1.17
8638.0,1.04
8640.0,0.72
8642.0,0.42
8644.0,0.29
8646.0,0.25
8648.0,0.0
8650.0,0.0
8652.0,0.0
8654.0,0.0
8655.0,0.0
8657.0,0.0
8659.0,0.0
8662.0,0.0
8664.0,0.0
8666.0,0.0
8668.0,0.0
8670.0,0.0
8672.0,0.0
8674.0,0.0
8676.0,0.0
8678.0,0.0
8680.0,0.0
8682.0,0.0
8684.0,0.0
8686.0,0.0
8688.0,0.0
8690.0,0.0
8692.0,0.0
8694.0,0.0
8696.0,0.0
8698.0,0.0
8699.0,0.0
8701.0,0.0
8704.0,0.0
8706.0,0.0
8708.0,0.0
8710.0,0.0
8712.0,0.0
8714.0,0.0
8716.0,0.03
8718.0,0.32
8720.0,0.33
8722.0,0.54
8724.0,0.56
8726.0,0.67
8728.0,0.78
8730.0,1.05
8732.0,1.24
8734.0,1.28
8736.0,1.3
8738.0,1.37
8740.0,1.59
8741.0,1.9
8743.0,2.07
8745.0,2.14
8748.0,2.06
8750.0,1.98
8752.0,2.14
8754.0,2.41
8756.0,2.57
8758.0,2.47
8760.0,2.32
8762.0,2.29
8764.0,2.41
8766.0,2.66
8768.0,2.81
8770.0,2.68
8772.0,2.57
8774.0,2.65
8776.0,2.85
8778.0,2.88
8780.0,2.76
8782.0,2.59
8784.0,2.64
8785.0,2.66
8787.0,2.71
8790.0,2.72
8792.0,2.8
8794.0,2.82
8796.0,2.92
8798.0,2.96
8800.0,2.96
8802.0,3.01
8804.0,3.1
8806.0,3.16
8808.0,3.03
8810.0,3.03
8812.0,3.01
8814.0,2.91
8816.0,3.05
8818.0,3.16
8820.0,3.16
8822.0,3.13
8824.0,3.13
8826.0,3.01
8828.0,2.86
8829.0,2.75
8832.0,2.78
8834.0,2.77
8836.0,2.8
8838.0,2.58
8840.0,2.45
8842.0,2.42
8844.0,2.35
8846.0,2.31
8848.0,2.33
8850.0,2.22
8852.0,2.22
8854.0,2.16
8856.0,2.13
8858.0,2.08
8860.0,2.11
8862.0,2.01
8864.0,1.95
8866.0,1.9
8868.0,1.89
8870.0,1.87
8872.0,1.91
8873.0,1.78
8876.0,1.67
8878.0,1.6
8880.0,1.62
8882.0,1.69
8884.0,1.7
8886.0,1.75
8888.0,1.61
8890.0,1.43
8892.0,1.4
8894.0,1.44
8896.0,1.46
8898.0,1.44
8900.0,1.51
8902.0,1.63
8904.0,1.56
8906.0,1.38
8908.0,1.32
8910.0,1.33
8912.0,1.42
8914.0,1.55
8915.0,1.42
8918.0,1.15
8920.0,1.05
8922.0,1.0
8924.0,1.05
8926.0,1.02
8928.0,1.12
8930.0,1.21
8932.0,1.17
8934.0,1.15
8936.0,1.15
8938.0,1.22
8940.0,1.36
8942.0,1.59
8944.0,1.66
8946.0,1.64
8948.0,1.61
8950.0,1.6
8952.0,1.68
8954.0,1.77
8956.0,1.91
8958.0,1.92
8960.0,1.85
8962.0,1.78
8964.0,1.74
8966.0,1.73
8968.0,1.72
8970.0,1.96
8972.0,2.04
8974.0,2.11
8976.0,2.13
8978.0,2.04
8980.0,2.02
8982.0,1.93
8984.0,1.94
8986.0,1.89
8988.0,1.88
8990.0,1.92
8992.0,1.98
8994.0,2.03
8996.0,2.08
8998.0,2.03
9000.0,2.02
9003.0,2.07
9004.0,2.09
9006.0,2.11
9008.0,2.05
9010.0,1.96
9012.0,1.81
9014.0,1.72
9016.0,1.61
9018.0,1.52
9020.0,1.51
9022.0,1.49
9024.0,1.43
9026.0,1.43
9028.0,1.46
9030.0,1.49
9032.0,1.55
9034.0,1.57
9036.0,1.61
9038.0,1.73
9040.0,1.87
9042.0,1.79
9044.0,1.87
9046.0,1.84
9048.0,2.02
9050.0,2.09
9052.0,2.12
9054.0,2.12
9056.0,2.17
9058.0,2.2
9060.0,2.15
9062.0,2.17
9064.0,2.17
9066.0,2.14
9068.0,2.21
9070.0,2.21
9072.0,2.13
9074.0,2.15
9076.0,2.15
9078.0,2.11
9080.0,2.15
9082.0,2.12
9084.0,2.14
9086.0,2.2
9089.0,2.24
9090.0,2.2
9092.0,2.16
9094.0,2.21
9096.0,2.26
9098.0,2.3
9100.0,2.38
9102.0,2.34
9104.0,2.33
9106.0,2.28
9108.0,2.29
9110.0,2.25
9112.0,2.18
9114.0,2.14
9116.0,2.05
9118.0,1.98
9120.0,1.9
9122.0,1.89
9124.0,1.78
9126.0,1.63
9128.0,1.51
9131.0,1.67
9133.0,1.77
9134.0,1.8
9136.0,1.78
9138.0,1.7
9140.0,1.69
9142.0,1.73
9144.0,1.66
9146.0,1.7
9148.0,1.61
9150.0,1.72
9152.0,1.82
9154.0,1.61
9156.0,1.49
9158.0,1.41
9160.0,1.41
9162.0,1.7
9164.0,1.93
9166.0,2.12
9168.0,2.14
9170.0,2.13
9172.0,2.06
9175.0,2.06
9177.0,2.02
9178.0,1.95
9180.0,2.02
9182.0,2.01
9184.0,1.99
9186.0,1.97
9188.0,1.92
9190.0,1.84
9192.0,1.85
9194.0,1.79
9196.0,1.77
9198.0,1.67
9200.0,1.74
9202.0,1.79
9204.0,1.83
9206.0,1.84
9208.0,1.89
9210.0,1.86
9212.0,1.79
9214.0,1.74
9217.0,1.8
9219.0,1.77
9221.0,1.72
9222.0,1.66
9224.0,1.85
9226.0,1.95
9228.0,1.76
9230.0,1.7
9232.0,1.71
9234.0,1.65
9236.0,1.61
9238.0,1.37
9240.0,1.35
9242.0,1.31
9244.0,1.25
9246.0,1.25
9248.0,1.17
9250.0,1.11
9252.0,1.16
9254.0,1.16
9256.0,1.18
9259.0,1.14
9261.0,1.18
9263.0,1.23
9265.0,1.2
9266.0,1.25
9268.0,1.28
9270.0,1.32
9272.0,1.41
9274.0,1.52
9276.0,1.55
9278.0,1.53
9280.0,1.57
9282.0,1.47
9284.0,1.41
9286.0,1.41
9288.0,1.35
9290.0,1.31
9292.0,1.23
9294.0,1.16
9296.0,1.17
9298.0,1.11
9300.0,1.08
9303.0,1.06
9305.0,0.97
9307.0,0.91
9309.0,0.85
9310.0,0.85
9312.0,0.9
9314.0,0.87
9316.0,0.89
9318.0,0.85
9320.0,0.88
9322.0,0.93
9324.0,0.87
9326.0,0.95
9328.0,1.09
9330.0,1.17
9332.0,1.16
9334.0,1.19
9336.0,1.24
9338.0,1.25
9340.0,1.25
9342.0,1.25
9345.0,1.32
9347.0,1.38
9349.0,1.38
9351.0,1.36
9353.0,1.34
9354.0,1.3
9356.0,1.24
9358.0,1.11
9360.0,1.08
9362.0,1.04
9364.0,1.07
9366.0,1.09
9368.0,1.05
9370.0,1.02
9372.0,1.02
9374.0,0.96
9376.0,0.95
9378.0,0.87
9380.0,0.87
9382.0,0.83
9384.0,0.82
9387.0,0.8
9389.0,0.77
9391.0,0.77
9393.0,0.83
9395.0,0.86
9396.0,0.94
9398.0,0.88
9400.0,0.94
9402.0,0.94
9404.0,0.98
9406.0,0.99
9408.0,1.01
9410.0,1.01
9412.0,0.92
9414.0,0.84
9416.0,0.93
9418.0,0.89
9420.0,1.0
9422.0,1.01
9424.0,1.07
9426.0,1.6
9428.0,1.8
9431.0,1.89
9433.0,1.92
9435.0,1.92
9437.0,1.78
9439.0,1.65
9441.0,1.69
9442.0,1.77
9444.0,1.76
9446.0,1.78
9448.0,1.73
9450.0,1.75
9452.0,1.81
9454.0,1.81
9456.0,1.81
9458.0,1.8
9460.0,1.77
9462.0,1.8
9464.0,1.85
9466.0,1.83
9468.0,1.76
9470.0,1.69
9473.0,1.55
9475.0,1.54
9477.0,1.51
9479.0,1.5
9481.0,1.52
9483.0,1.48
9484.0,1.44
9486.0,1.45
9488.0,1.37
9490.0,1.31
9492.0,1.34
9494.0,1.35
9496.0,1.36
9498.0,1.35
9500.0,1.43
9502.0,1.45
9504.0,1.51
9506.0,1.53
9508.0,1.45
9510.0,1.4
9512.0,1.42
9515.0,1.38
9517.0,1.41
9519.0,1.37
9521.0,1.43
9523.0,1.35
9525.0,1.34
9527.0,1.38
9528.0,1.31
9530.0,1.32
9532.0,1.35
9534.0,1.35
9536.0,1.31
9538.0,1.26
9540.0,1.34
9542.0,1.34
9544.0,1.34
9546.0,1.4
9548.0,1.4
9550.0,1.45
9552.0,1.44
9554.0,1.43
9556.0,1.45
9559.0,1.37
9561.0,1.41
9563.0,1.43
9565.0,1.36
9567.0,1.31
9569.0,1.3
9571.0,1.34
9572.0,1.28
9574.0,1.2
9576.0,1.23
9578.0,1.21
9580.0,1.29
9582.0,1.26
9584.0,1.3
9586.0,1.36
9588.0,1.36
9590.0,1.35
9592.0,1.3
9594.0,1.31
9596.0,1.29
9598.0,1.2
9601.0,1.35
9603.0,1.38
9605.0,1.45
9607.0,1.4
9609.0,1.36
9611.0,1.3
9613.0,1.25
9615.0,1.2
9616.0,1.23
9618.0,1.25
9620.0,1.38
9622.0,1.31
9624.0,1.31
9626.0,1.36
9628.0,1.33
9630.0,1.41
9632.0,1.42
9634.0,1.41
9636.0,1.47
9638.0,1.39
9640.0,1.43
9643.0,1.48
9645.0,1.55
9647.0,1.62
9649.0,1.66
9651.0,1.74
9653.0,1.7
9655.0,1.67
9657.0,1.56
9658.0,1.51
9660.0,1.56
9662.0,1.57
9664.0,1.52
9666.0,1.54
9668.0,1.55
9670.0,1.56
9672.0,1.45
9674.0,1.52
9676.0,1.48
9678.0,1.38
9680.0,1.47
9682.0,1.51
9684.0,1.63
9687.0,1.75
9689.0,1.66
9691.0,1.66
9693.0,1.6
9695.0,1.57
9697.0,1.62
9699.0,1.65
9701.0,1.77
9702.0,1.75
9704.0,1.62
9706.0,1.58
9708.0,1.54
9710.0,1.59
9712.0,1.55
9714.0,1.51
9716.0,1.44
9718.0,1.43
9720.0,1.57
9722.0,1.6
9724.0,1.59
9726.0,1.54
9729.0,1.45
9731.0,1.44
9733.0,1.41
9735.0,1.28
9737.0,1.26
9739.0,1.21
9741.0,1.36
9743.0,1.36
9745.0,1.34
9746.0,1.34
9748.0,1.16
9750.0,1.11
9752.0,1.09
9754.0,1.16
9756.0,1.16
9758.0,1.13
9760.0,1.1
9762.0,1.0
9764.0,1.09
9766.0,1.09
9768.0,1.12
9771.0,1.17
9773.0,1.09
9775.0,0.98
9777.0,0.96
9779.0,1.06
9781.0,1.22
9783.0,1.24
9785.0,1.19
9787.0,1.17
9789.0,1.13
9790.0,1.21
9792.0,1.2
9794.0,1.14
9796.0,1.09
9798.0,1.05
9800.0,1.31
9802.0,1.35
9804.0,1.27
9806.0,1.17
9808.0,1.14
9810.0,1.16
9812.0,1.13
9815.0,1.1
9817.0,1.16
9819.0,1.35
9821.0,1.29
9823.0,1.23
9825.0,1.35
9827.0,1.5
9829.0,1.47
9831.0,1.52
9833.0,1.53
9834.0,1.53
9836.0,1.55
9838.0,1.57
9840.0,1.66
9842.0,1.56
9844.0,1.54
9846.0,1.55
9848.0,1.15
9850.0,0.94
9852.0,1.06
9854.0,1.29
9857.0,1.42
9859.0,1.58
9861.0,1.57
9863.0,1.56
9865.0,1.67
9867.0,1.8
9869.0,1.84
9871.0,1.85
9873.0,1.85
9875.0,1.85
9876.0,1.83
9878.0,1.76
9880.0,1.75
9882.0,1.87
9884.0,1.94
9886.0,1.84
9888.0,1.75
9890.0,1.78
9892.0,1.58
9894.0,1.6
9896.0,1.68
9899.0,1.78
9901.0,1.9
9903.0,1.91
9905.0,1.77
9907.0,1.8
9909.0,1.74
9911.0,1.62
9913.0,1.52
9915.0,1.51
9917.0,1.41
9919.0,1.22
9920.0,1.23
9922.0,1.25
9924.0,1.33
9926.0,1.31
9928.0,1.27
9930.0,1.27
9932.0,1.3
9934.0,1.44
9936.0,1.46
9938.0,1.37
9940.0,1.38
9943.0,1.37
9945.0,1.37
9947.0,1.32
9949.0,1.2
9951.0,1.11
9953.0,1.13
9955.0,1.12
9957.0,1.12
9959.0,1.08
9961.0,1.14
9963.0,1.28
9964.0,1.36
9966.0,1.45
9968.0,1.4
9970.0,1.47
9972.0,1.57
9974.0,1.6
9976.0,1.67
9978.0,1.78
9980.0,1.99
9982.0,1.97
9985.0,1.78
9987.0,1.67
9989.0,1.34
9991.0,1.19
9993.0,1.12
9995.0,1.27
9997.0,1.24
9999.0,1.14
10001.0,1.16
10003.0,1.15
10005.0,1.27
10007.0,1.33
10008.0,1.33
10010.0,1.44
10012.0,1.38
10014.0,1.43
10016.0,1.45
10018.0,1.43
10020.0,1.44
10022.0,1.34
10024.0,1.29
10027.0,1.35
10029.0,1.34
10031.0,1.39
10033.0,1.27
10035.0,1.35
10037.0,1.38
10039.0,1.36
10041.0,1.37
10043.0,1.27
10045.0,1.25
10047.0,1.22
10049.0,1.15
10051.0,1.22
10052.0,1.18
10054.0,1.3
10056.0,1.43
10058.0,1.53
10060.0,1.59
10062.0,1.65
10064.0,1.66
10066.0,1.72
10068.0,1.71
10071.0,1.75
10073.0,1.76
10075.0,1.75
10077.0,1.74
10079.0,1.79
10081.0,1.94
10083.0,2.03
10085.0,2.07
10087.0,2.07
10089.0,2.04
10091.0,2.14
10093.0,2.2
10094.0,2.16
10096.0,2.11
10098.0,2.04
10100.0,2.08
10102.0,2.11
10104.0,2.09
10106.0,1.97
10108.0,1.99
10110.0,2.01
10113.0,2.03
10115.0,1.94
10117.0,1.88
10119.0,1.85
10121.0,1.87
10123.0,1.86
10125.0,1.82
10127.0,1.84
10129.0,1.85
10131.0,1.82
10133.0,1.79
10135.0,1.89
10136.0,1.96
10138.0,1.88
10140.0,1.91
10142.0,1.86
10144.0,1.86
10146.0,1.93
10148.0,1.85
10150.0,1.8
10152.0,1.85
10155.0,1.8
10157.0,1.69
10159.0,1.86
10161.0,1.9
10163.0,1.88
10165.0,1.84
10167.0,1.82
10169.0,1.69
10171.0,1.71
10173.0,1.6
10175.0,1.49
10177.0,1.37
10179.0,1.34
10180.0,1.33
10182.0,1.39
10184.0,1.35
10186.0,1.29
10188.0,1.23
10190.0,1.33
10192.0,1.35
10194.0,1.36
10196.0,1.32
10199.0,1.36
10201.0,1.41
10203.0,1.46
10205.0,1.55
10207.0,1.42
10209.0,1.27
10211.0,1.25
10213.0,1.22
10215.0,1.27
10217.0,1.32
10219.0,1.28
10221.0,1.29
10222.0,1.22
10224.0,1.15
10226.0,1.16
10228.0,1.13
10230.0,1.12
10232.0,1.15
10234.0,1.15
10236.0,1.19
10238.0,1.2
10241.0,1.25
10243.0,1.24
10245.0,1.28
10247.0,1.22
10249.0,1.08
10251.0,1.14
10253.0,1.17
10255.0,1.12
10257.0,1.16
10259.0,1.15
10261.0,1.15
10263.0,1.15
10264.0,1.15
10266.0,1.17
10268.0,1.15
10270.0,1.23
10272.0,1.12
10274.0,1.15
10276.0,1.22
10278.0,1.29
10280.0,1.44
10283.0,1.37
10285.0,1.41
10287.0,1.44
10289.0,1.34
10291.0,1.36
10293.0,1.35
10295.0,1.34
10297.0,1.3
10299.0,1.28
10301.0,1.36
10303.0,1.41
10305.0,1.29
10307.0,1.21
10308.0,1.18
10310.0,1.25
10312.0,1.35
10314.0,1.29
10316.0,1.25
10318.0,1.37
10320.0,1.47
10322.0,1.43
10324.0,1.42
10327.0,1.44
10329.0,1.45
10331.0,1.49
10333.0,1.53
10335.0,1.56
10337.0,1.57
10339.0,1.54
10341.0,1.43
10343.0,1.42
10345.0,1.48
10347.0,1.49
10349.0,1.5
10350.0,1.63
10352.0,1.64
10354.0,1.58
10356.0,1.54
10358.0,1.53
10360.0,1.59
10362.0,1.62
10364.0,1.59
10366.0,1.61
10369.0,1.52
10371.0,1.5
10373.0,1.45
10375.0,1.42
10377.0,1.39
10379.0,1.41
10381.0,1.47
10383.0,1.51
10385.0,1.49
10387.0,1.5
10389.0,1.48
10391.0,1.56
10392.0,1.54
10394.0,1.65
10396.0,1.64
10398.0,1.73
10400.0,1.79
10402.0,1.84
10404.0,1.97
10406.0,1.89
10408.0,1.85
10411.0,1.88
10413.0,1.84
10415.0,1.76
10417.0,1.64
10419.0,1.61
10421.0,1.69
10423.0,1.65
10425.0,1.64
10427.0,1.66
10429.0,1.64
10431.0,1.59
10433.0,1.5
10435.0,1.61
10436.0,1.63
10438.0,1.59
10440.0,1.6
10442.0,1.52
10444.0,1.51
10446.0,1.44
10448.0,1.51
10450.0,1.56
10452.0,1.61
10455.0,1.67
10457.0,1.68
10459.0,1.69
10461.0,1.74
10463.0,1.69
10465.0,1.65
10467.0,1.46
10469.0,1.43
10471.0,1.45
10473.0,1.36
10475.0,1.26
10477.0,1.22
10478.0,1.19
10480.0,1.24
10482.0,1.26
10484.0,1.29
10486.0,1.26
10488.0,1.28
10490.0,1.32
10492.0,1.34
10494.0,1.33
10497.0,1.26
10499.0,1.41
10501.0,1.49
10503.0,2.33
10505.0,3.03
10507.0,3.22
10509.0,3.24
10511.0,3.25
10513.0,3.1
10515.0,2.99
10517.0,2.77
10519.0,2.65
10520.0,2.54
10522.0,2.37
10524.0,2.3
10526.0,2.28
10528.0,2.29
10530.0,2.39
10532.0,2.46
10534.0,2.52
10536.0,2.39
10539.0,2.19
10541.0,1.98
10543.0,1.85
10545.0,1.91
10547.0,1.85
10549.0,1.75
10551.0,1.71
10553.0,1.73
10555.0,1.79
10557.0,1.67
10559.0,1.65
10561.0,1.6
10563.0,1.35
10564.0,0.97
10566.0,0.77
10568.0,0.69
10570.0,0.78
10572.0,0.79
10574.0,0.8
10576.0,0.82
10578.0,0.79
10580.0,0.82
10583.0,0.94
10585.0,1.06
10587.0,0.98
10589.0,0.92
10591.0,1.08
10593.0,1.21
10595.0,1.24
10597.0,1.2
10599.0,1.19
10601.0,1.27
10603.0,1.34
10605.0,1.34
10606.0,1.3
10608.0,1.28
10610.0,1.31
10612.0,1.24
10614.0,1.2
10616.0,1.08
10618.0,1.14
10620.0,1.17
10622.0,1.15
10625.0,1.16
10627.0,1.22
10629.0,1.28
10631.0,1.36
10633.0,1.38
10635.0,1.36
10637.0,1.34
10639.0,1.35
10641.0,1.35
10643.0,1.23
10645.0,1.16
10647.0,1.06
10648.0,1.03
10650.0,1.13
10652.0,1.04
10654.0,0.9
10656.0,1.0
10658.0,1.12
10660.0,1.19
10662.0,1.19
10664.0,1.17
10667.0,1.2
10669.0,1.2
10671.0,1.22
10673.0,1.16
10675.0,1.2
10677.0,1.2
10679.0,1.23
10681.0,1.25
10683.0,1.29
10685.0,1.31
10687.0,1.35
10689.0,1.49
10691.0,1.61
10692.0,1.67
10694.0,1.6
10696.0,1.47
10698.0,1.44
10700.0,1.53
10702.0,1.46
10704.0,1.4
10706.0,1.36
10708.0,1.35
10711.0,1.33
10713.0,1.36
10715.0,1.37
10717.0,1.3
10719.0,1.25
10721.0,1.38
10723.0,1.52
10725.0,1.6
10727.0,1.7
10729.0,1.82
10731.0,1.86
10733.0,1.73
10734.0,1.76
10736.0,1.78
10738.0,1.87
10740.0,1.82
10742.0,1.75
10744.0,1.78
10746.0,1.74
10748.0,1.72
10750.0,1.73
10753.0,1.66
10755.0,1.59
10757.0,1.42
10759.0,1.25
10761.0,1.18
10763.0,1.25
10765.0,1.37
10767.0,1.37
10769.0,1.38
10771.0,1.33
10773.0,1.42
10775.0,1.67
10776.0,1.84
10778.0,1.96
10780.0,1.95
10782.0,1.85
10784.0,1.76
10786.0,1.77
10788.0,1.76
10790.0,1.71
10792.0,1.65
10795.0,1.63
10797.0,1.41
10799.0,1.32
10801.0,1.35
10803.0,1.42
10805.0,1.4
10807.0,1.3
10809.0,1.28
10811.0,1.45
10813.0,1.45
10815.0,1.4
10817.0,1.28
10819.0,1.26
10820.0,1.22
10822.0,1.2
10824.0,1.21
10826.0,1.2
10828.0,1.23
10830.0,1.09
10832.0,1.12
10834.0,1.05
10836.0,0.99
10839.0,1.07
10841.0,1.07
10843.0,1.15
10845.0,1.16
10847.0,1.17
10849.0,1.24
10851.0,1.3
10853.0,1.25
10855.0,1.18
10857.0,1.23
10859.0,1.32
10861.0,1.42
10862.0,1.55
10864.0,1.55
10866.0,1.5
10868.0,1.5
10870.0,1.45
10872.0,1.45
10874.0,1.42
10876.0,1.21
10878.0,1.15
10881.0,1.19
10883.0,1.21
10885.0,1.23
10887.0,1.21
10889.0,1.17
10891.0,1.23
10893.0,1.33
10895.0,1.28
10897.0,1.21
10899.0,1.27
10901.0,1.32
10903.0,1.37
10905.0,1.19
10906.0,1.32
10908.0,1.38
10910.0,1.48
10912.0,1.51
10914.0,1.61
10916.0,1.62
10918.0,1.7
10920.0,1.62
10923.0,1.55
10925.0,1.48
10927.0,1.48
10929.0,1.45
10931.0,1.5
10933.0,1.63
10935.0,1.66
10937.0,1.65
10939.0,1.65
10941.0,1.64
10943.0,1.63
10945.0,1.76
10947.0,1.79
10948.0,1.72
10950.0,1.69
10952.0,1.7
10954.0,1.71
10956.0,1.59
10958.0,1.62
10960.0,1.57
10962.0,1.62
10964.0,1.61
10967.0,1.6
10969.0,1.54
10971.0,1.5
10973.0,1.56
10975.0,1.62
10977.0,1.69
10979.0,1.9
10981.0,1.89
10983.0,1.81
10985.0,1.81
10987.0,1.71
10989.0,1.66
10990.0,1.63
10992.0,1.6
10994.0,1.61
10996.0,1.65
10998.0,1.79
11000.0,1.75
11002.0,1.76
11004.0,1.77
11006.0,1.81
11009.0,1.8
11011.0,1.71
11013.0,1.8
11015.0,1.82
11017.0,1.8
11019.0,1.8
11021.0,1.78
11023.0,1.66
11025.0,1.51
11027.0,1.43
11029.0,1.41
11031.0,1.47
11033.0,1.48
11034.0,1.42
11036.0,1.3
11038.0,1.26
11040.0,1.21
11042.0,1.28
11044.0,1.32
11046.0,1.22
11048.0,1.13
11051.0,1.1
11053.0,1.04
11055.0,1.07
11057.0,1.15
11059.0,1.21
11061.0,1.26
11063.0,1.36
11065.0,1.33
11067.0,1.21
11069.0,1.16
11071.0,1.14
11073.0,1.02
11075.0,1.04
11076.0,1.03
11078.0,1.11
11080.0,1.08
11082.0,1.14
11084.0,1.09
11086.0,1.16
11088.0,1.12
11090.0,1.12
11092.0,1.05
11095.0,1.03
11097.0,1.03
11099.0,1.14
11101.0,1.27
11103.0,1.25
11105.0,1.29
11107.0,1.28
11109.0,1.37
11111.0,1.34
11113.0,1.17
11115.0,1.18
11117.0,1.23
11118.0,1.46
11120.0,1.5
11122.0,1.62
11124.0,1.65
11126.0,1.65
11128.0,1.65
11130.0,1.64
11132.0,1.65
11134.0,1.71
11137.0,1.67
11139.0,1.68
11141.0,1.55
11143.0,1.53
11145.0,1.56
11147.0,1.59
11149.0,1.56
11151.0,1.49
11153.0,1.39
11155.0,1.29
11157.0,1.19
11159.0,1.24
11161.0,1.23
11162.0,1.25
11164.0,1.27
11166.0,1.24
11168.0,1.24
11170.0,0.98
11172.0,0.82
11174.0,0.77
11176.0,0.8
11179.0,0.95
11181.0,1.03
11183.0,1.09
11185.0,1.11
11187.0,1.15
11189.0,1.15
11191.0,1.07
11193.0,1.06
11195.0,1.17
11197.0,1.15
11199.0,1.17
11201.0,1.12
11203.0,1.15
11204.0,1.25
11206.0,1.25
11208.0,1.33
11210.0,1.29
11212.0,1.26
11214.0,1.21
11216.0,1.25
11218.0,1.34
11220.0,1.32
11223.0,1.3
11225.0,1.39
11227.0,1.47
11229.0,1.72
11231.0,1.7
11233.0,1.69
11235.0,1.69
11237.0,1.65
11239.0,1.58
11241.0,1.54
11243.0,1.56
11245.0,1.6
11246.0,1.59
11248.0,1.58
11250.0,1.57
11252.0,1.63
11254.0,1.65
11256.0,1.59
11258.0,1.66
11260.0,1.73
11262.0,1.75
11265.0,1.78
11267.0,1.84
11269.0,1.82
11271.0,1.84
11273.0,1.82
11275.0,1.89
11277.0,1.87
11279.0,1.95
11281.0,1.92
11283.0,1.86
11285.0,1.9
11287.0,1.82
11289.0,1.81
11290.0,1.84
11292.0,1.93
11294.0,1.9
11296.0,1.81
11298.0,1.88
11300.0,1.94
11302.0,2.01
11304.0,2.0
11307.0,2.01
11309.0,2.09
11311.0,2.1
11313.0,1.89
11315.0,1.86
11317.0,1.8
11319.0,1.77
11321.0,1.78
11323.0,1.86
11325.0,1.95
11327.0,1.99
11329.0,1.97
11331.0,1.9
11332.0,1.85
11334.0,1.95
11336.0,1.89
11338.0,1.88
11340.0,1.85
11342.0,1.88
11344.0,1.85
11346.0,1.72
11348.0,1.76
11351.0,1.75
11353.0,1.75
11355.0,1.71
11357.0,1.7
11359.0,1.82
11361.0,1.87
11363.0,1.82
11365.0,1.87
11367.0,1.86
11369.0,1.91
11371.0,1.88
11373.0,1.91
11375.0,1.88
11376.0,1.83
11378.0,1.83
11380.0,1.78
11382.0,1.84
11384.0,1.9
11386.0,1.85
11388.0,1.79
11390.0,1.79
11393.0,1.83
11395.0,1.87
11397.0,1.86
11399.0,1.89
11401.0,1.88
11403.0,1.8
11405.0,1.74
11407.0,1.66
11409.0,1.68
11411.0,1.61
11413.0,1.47
11415.0,1.4
11417.0,1.32
11418.0,1.38
11420.0,1.37
11422.0,1.36
11424.0,1.35
11426.0,1.37
11428.0,1.46
11430.0,1.44
11432.0,1.44
11435.0,1.33
11437.0,1.28
11439.0,1.31
11441.0,1.29
11443.0,1.41
11445.0,1.33
11447.0,1.23
11449.0,1.22
11451.0,1.29
11453.0,1.26
11455.0,1.11
11457.0,1.06
11459.0,1.15
11460.0,1.14
11462.0,1.22
11464.0,1.21
11466.0,1.13
11468.0,1.14
11470.0,1.13
11472.0,1.09
11474.0,1.12
11476.0,1.11
11479.0,1.27
11481.0,1.17
11483.0,1.05
11485.0,0.88
11487.0,0.79
11489.0,0.95
11491.0,0.94
11493.0,1.16
11495.0,1.38
11497.0,1.25
11499.0,1.14
11501.0,0.96
11503.0,0.69
11504.0,0.64
11506.0,0.75
11508.0,0.66
11510.0,0.49
11512.0,0.34
11514.0,0.31
11516.0,0.51
11518.0,0.68
11521.0,0.69
11523.0,0.54
11525.0,0.56
11527.0,0.63
11529.0,0.67
11531.0,0.61
11533.0,0.49
11535.0,0.34
11537.0,0.29
11539.0,0.44
11541.0,0.56
11543.0,0.71
11545.0,0.75
11546.0,0.53
11548.0,0.4
11550.0,0.19
11552.0,0.1
11554.0,0.0
11556.0,0.0
11558.0,0.2
11560.0,0.39
11563.0,0.36
11565.0,0.01
11567.0,0.0
11569.0,0.0
11571.0,0.0
11573.0,0.0
11575.0,0.0
11577.0,0.0
11579.0,0.0
11581.0,0.0
11583.0,0.0
11585.0,0.0
11587.0,0.0
11588.0,0.0
11590.0,0.0
11592.0,0.0
11594.0,0.0
11596.0,0.04
11598.0,0.3
11600.0,0.58
11602.0,0.7
11604.0,0.63
11607.0,0.68
11609.0,0.81
11611.0,1.03
11613.0,1.12
11615.0,1.23
11617.0,1.23
11619.0,1.43
11621.0,1.49
11623.0,1.51
11625.0,1.55
11627.0,1.55
11629.0,1.58
11631.0,1.57
11632.0,1.53
11634.0,1.55
11636.0,1.6
11638.0,1.71
11640.0,1.71
11642.0,1.81
11644.0,1.75
11646.0,1.7
11649.0,1.8
11651.0,2.01
11653.0,1.97
11655.0,2.0
11657.0,1.99
11659.0,2.06
11661.0,2.05
11663.0,2.14
11665.0,2.21
11667.0,2.27
11669.0,2.4
11671.0,2.55
11673.0,2.6
11674.0,2.64
11676.0,2.56
11678.0,2.53
11680.0,2.57
11682.0,2.71
11684.0,2.81
11686.0,2.84
11688.0,2.84
11691.0,2.84
11693.0,2.82
11695.0,2.79
11697.0,2.84
11699.0,3.07
11701.0,3.19
11703.0,3.25
11705.0,3.17
11707.0,2.98
11709.0,2.84
11711.0,2.81
11713.0,2.91
11715.0,2.93
11716.0,2.91
11718.0,2.98
11720.0,2.88
11722.0,2.83
11724.0,2.84
11726.0,2.84
11728.0,2.87
11730.0,2.73
11732.0,2.76
11735.0,2.86
11737.0,2.62
11739.0,2.55
11741.0,2.52
11743.0,2.47
11745.0,2.53
11747.0,2.55
11749.0,2.51
11751.0,2.44
11753.0,2.37
11755.0,2.3
11757.0,2.24
11759.0,2.3
11760.0,2.39
11762.0,2.39
11764.0,2.42
11766.0,2.51
11768.0,2.68
11770.0,2.52
11772.0,2.33
11774.0,2.39
11777.0,2.39
11779.0,2.45
11781.0,2.44
11783.0,2.4
11785.0,2.43
11787.0,2.32
11789.0,2.29
11791.0,2.14
11793.0,2.04
11795.0,2.09
11797.0,2.08
11799.0,2.09
11801.0,2.05
11802.0,1.93
11804.0,1.8
11806.0,1.75
11808.0,1.79
11810.0,1.85
11812.0,1.8
11814.0,1.6
11816.0,1.41
11819.0,1.42
11821.0,1.35
11823.0,1.35
11825.0,1.32
11827.0,1.31
11829.0,1.29
11831.0,1.26
11833.0,1.3
11835.0,1.24
11837.0,1.14
11839.0,1.25
11841.0,1.3
11843.0,1.43
11844.0,1.55
11846.0,1.46
11848.0,1.45
11850.0,1.37
11852.0,1.29
11854.0,1.16
11856.0,1.14
11858.0,1.2
11860.0,1.21
11863.0,1.23
11865.0,1.21
11867.0,1.21
11869.0,1.3
11871.0,1.39
11873.0,1.33
11875.0,1.31
11877.0,1.33
11879.0,1.36
11881.0,1.4
11883.0,1.66
11885.0,1.82
11887.0,1.79
11888.0,1.68
11890.0,1.52
11892.0,1.42
11894.0,1.34
11896.0,1.28
11898.0,1.36
11900.0,1.35
11902.0,1.35
11905.0,1.39
11907.0,1.26
11909.0,1.25
11911.0,1.3
11913.0,1.29
11915.0,1.2
11917.0,1.16
11919.0,1.3
11921.0,1.28
11923.0,1.23
11925.0,1.17
11927.0,1.16
11929.0,1.25
11930.0,1.31
11932.0,1.21
11934.0,1.19
11936.0,1.18
11938.0,1.35
11940.0,1.4
11942.0,1.5
11944.0,1.57
11947.0,1.56
11949.0,1.63
11951.0,1.63
11953.0,1.55
11955.0,1.54
11957.0,1.53
11959.0,1.55
11961.0,1.61
11963.0,1.68
11965.0,1.65
11967.0,1.54
11969.0,1.53
11971.0,1.56
11973.0,1.58
11974.0,1.58
11976.0,1.54
11978.0,1.53
11980.0,1.54
11982.0,1.48
11984.0,1.45
11986.0,1.38
11988.0,1.37
11991.0,1.36
11993.0,1.41
11995.0,1.42
11997.0,1.35
11999.0,1.43
12001.0,1.57
12003.0,1.62
12005.0,1.6
12007.0,1.48
12009.0,1.49
12011.0,1.59
12013.0,1.58
12015.0,1.55
12016.0,1.47
12018.0,1.54
12020.0,1.48
12022.0,1.44
12024.0,1.46
12026.0,1.39
12028.0,1.44
12030.0,1.39
12033.0,1.38
12035.0,1.42
12037.0,1.34
12039.0,1.36
12041.0,1.37
12043.0,1.38
12045.0,1.4
12047.0,1.35
12049.0,1.39
12051.0,1.39
12053.0,1.35
12055.0,1.33
12057.0,1.27
12058.0,1.35
12060.0,1.42
12062.0,1.4
12064.0,1.5
12066.0,1.46
12068.0,1.46
12070.0,1.44
12072.0,1.34
12075.0,1.25
12077.0,1.26
12079.0,1.36
12081.0,1.33
12083.0,1.34
12085.0,1.39
12087.0,1.32
12089.0,1.32
12091.0,1.26
12093.0,1.28
12095.0,1.16
12097.0,1.16
12099.0,1.23
12101.0,1.24
12102.0,1.27
12104.0,1.26
12106.0,1.18
12108.0,1.21
12110.0,1.21
12112.0,1.23
12114.0,1.22
12116.0,1.24
12119.0,1.31
12121.0,1.36
12123.0,1.34
12125.0,1.38
12127.0,1.37
12129.0,1.43
12131.0,1.37
12133.0,1.31
12135.0,1.19
12137.0,1.19
12139.0,1.26
12141.0,1.33
12143.0,1.38
12144.0,1.33
12146.0,1.35
12148.0,1.42
12150.0,1.36
12152.0,1.3
12154.0,1.35
12156.0,1.41
12158.0,1.55
12161.0,1.54
12163.0,1.59
12165.0,1.63
12167.0,1.62
12169.0,1.6
12171.0,1.55
12173.0,1.49
12175.0,1.48
12177.0,1.52
12179.0,1.68
12181.0,1.68
12183.0,1.68
12185.0,1.64
12186.0,1.64
12188.0,1.69
12190.0,1.67
12192.0,1.69
12194.0,1.69
12196.0,1.66
12198.0,1.71
12200.0,1.69
12203.0,1.72
12205.0,1.67
12207.0,1.59
12209.0,1.62
12211.0,1.58
12213.0,1.54
12215.0,1.55
12217.0,1.54
12219.0,1.47
12221.0,1.45
12223.0,1.5
12225.0,1.58
12227.0,1.68
12229.0,1.64
12230.0,1.57
12232.0,1.58
12234.0,1.53
12236.0,1.48
12238.0,1.48
12240.0,1.45
12242.0,1.52
12244.0,1.47
12247.0,1.4
12249.0,1.44
12251.0,1.42
12253.0,1.37
12255.0,1.4
12257.0,1.43
12259.0,1.41
12261.0,1.38
12263.0,1.42
12265.0,1.44
12267.0,1.44
12269.0,1.47
12271.0,1.45
12272.0,1.44
12274.0,1.38
12276.0,1.37
12278.0,1.35
12280.0,1.41
12282.0,1.42
12284.0,1.42
12286.0,1.33
12289.0,1.36
12291.0,1.33
12293.0,1.36
12295.0,1.31
12297.0,1.35
12299.0,1.45
12301.0,1.51
12303.0,1.54
12305.0,1.6
12307.0,1.6
12309.0,1.69
12311.0,1.73
12313.0,1.71
12314.0,1.63
12316.0,1.7
12318.0,1.69
12320.0,1.66
12322.0,1.62
12324.0,1.6
12326.0,1.52
12328.0,1.49
12331.0,1.44
12333.0,1.38
12335.0,1.29
12337.0,1.29
12339.0,1.31
12341.0,1.16
12343.0,1.25
12345.0,1.22
12347.0,1.07
12349.0,1.03
12351.0,0.88
12353.0,0.9
12355.0,0.95
12357.0,0.95
12358.0,1.02
12360.0,1.15
12362.0,1.25
12364.0,1.27
12366.0,1.35
12368.0,1.45
12370.0,1.45
12372.0,1.5
12375.0,1.44
12377.0,1.32
12379.0,1.28
12381.0,1.24
12383.0,1.25
12385.0,1.2
12387.0,1.17
12389.0,1.19
12391.0,1.21
12393.0,1.25
12395.0,1.19
12397.0,1.17
12399.0,1.24
12400.0,1.18
12402.0,1.12
12404.0,1.27
12406.0,1.45
12408.0,1.58
12410.0,1.5
12412.0,1.59
12414.0,1.77
12417.0,1.91
12419.0,1.93
12421.0,1.85
12423.0,1.75
12425.0,1.69
12427.0,1.75
12429.0,1.82
12431.0,1.72
12433.0,1.51
12435.0,1.3
12437.0,1.24
12439.0,1.22
12441.0,1.19
12442.0,1.22
12444.0,1.22
12446.0,1.28
12448.0,1.43
12450.0,1.42
12452.0,1.43
12454.0,1.32
12456.0,1.19
12459.0,1.25
12461.0,1.11
12463.0,0.94
12465.0,1.09
12467.0,1.08
12469.0,0.93
12471.0,0.76
12473.0,0.55
12475.0,0.37
12477.0,0.41
12479.0,0.48
12481.0,0.45
12483.0,0.41
12485.0,0.43
12486.0,0.46
12488.0,0.44
12490.0,0.35
12492.0,0.48
12494.0,0.6
12496.0,0.7
12498.0,0.8
12500.0,0.77
12503.0,0.76
12505.0,0.74
12507.0,0.72
12509.0,0.82
12511.0,0.92
12513.0,0.92
12515.0,0.85
12517.0,0.87
12519.0,0.93
12521.0,0.98
12523.0,1.05
12525.0,1.04
12527.0,1.11
12528.0,1.12
12530.0,1.07
12532.0,1.11
12534.0,1.13
12536.0,1.21
12538.0,1.27
12540.0,1.22
12542.0,1.25
12545.0,1.24
12547.0,1.22
12549.0,1.24
12551.0,1.34
12553.0,1.3
12555.0,1.27
12557.0,1.33
12559.0,1.4
12561.0,1.34
12563.0,1.34
12565.0,1.25
12567.0,1.25
12569.0,1.23
12570.0,1.24
12572.0,1.19
12574.0,1.17
12576.0,1.18
12578.0,1.23
12580.0,1.2
12582.0,1.28
12584.0,1.32
12587.0,1.32
12589.0,1.29
12591.0,1.3
12593.0,1.35
12595.0,1.37
12597.0,1.43
12599.0,1.37
12601.0,1.42
12603.0,1.37
12605.0,1.36
12607.0,1.35
12609.0,1.37
12611.0,1.24
12613.0,1.11
12614.0,1.03
12616.0,1.09
12618.0,1.14
12620.0,1.18
12622.0,1.13
12624.0,1.08
12626.0,1.17
12628.0,1.22
12631.0,1.25
12633.0,1.33
12635.0,1.43
12637.0,1.5
12639.0,1.43
12641.0,1.46
12643.0,1.46
12645.0,1.46
12647.0,1.48
12649.0,1.61
12651.0,1.57
12653.0,1.58
12655.0,1.58
12656.0,1.64
12658.0,1.67
12660.0,1.79
12662.0,1.8
12664.0,1.78
12666.0,1.8
12668.0,1.82
12670.0,1.85
12673.0,1.84
12675.0,1.8
12677.0,1.96
12679.0,2.07
12681.0,2.09
12683.0,2.11
12685.0,2.14
12687.0,2.19
12689.0,2.12
12691.0,1.91
12693.0,1.93
12695.0,1.91
12697.0,1.96
12698.0,2.0
12700.0,1.94
12702.0,1.81
12704.0,1.83
12706.0,1.81
12708.0,1.74
12710.0,1.7
12712.0,1.74
12715.0,1.68
12717.0,1.66
12719.0,1.59
12721.0,1.47
12723.0,1.45
12725.0,1.55
12727.0,1.67
12729.0,1.65
12731.0,1.73
12733.0,1.77
12735.0,1.67
12737.0,1.57
12739.0,1.53
12741.0,1.5
12742.0,1.6
12744.0,1.57
12746.0,1.59
12748.0,1.63
12750.0,1.71
12752.0,1.68
12754.0,1.78
12756.0,1.9
12759.0,2.17
12761.0,2.23
12763.0,2.22
12765.0,2.18
12767.0,2.22
12769.0,2.19
12771.0,2.05
12773.0,2.02
12775.0,1.91
12777.0,1.89
12779.0,1.89
12781.0,1.93
12783.0,2.02
12784.0,2.02
12786.0,1.95
12788.0,1.93
12790.0,1.82
12792.0,1.83
12794.0,1.8
12796.0,1.79
12798.0,1.78
12801.0,1.72
12803.0,1.63
12805.0,1.68
12807.0,1.65
12809.0,1.7
12811.0,1.82
12813.0,1.85
12815.0,1.72
12817.0,1.76
12819.0,1.72
12821.0,1.63
12823.0,1.58
12825.0,1.54
12826.0,1.51
12828.0,1.52
12830.0,1.55
12832.0,1.49
12834.0,1.34
12836.0,1.42
12838.0,1.44
12840.0,1.41
12843.0,1.48
12845.0,1.41
12847.0,1.31
12849.0,1.3
12851.0,1.29
12853.0,1.18
12855.0,1.14
12857.0,1.2
12859.0,1.14
12861.0,1.23
12863.0,1.23
12865.0,1.18
12867.0,1.16
12869.0,1.25
12870.0,1.31
12872.0,1.3
12874.0,1.32
12876.0,1.41
12878.0,1.48
12880.0,1.44
12882.0,1.37
12884.0,1.36
12887.0,1.36
12889.0,1.27
12891.0,1.23
12893.0,1.13
12895.0,1.03
12897.0,1.08
12899.0,1.09
12901.0,1.14
12903.0,1.19
12905.0,1.18
12907.0,1.08
12909.0,1.05
12911.0,1.03
12912.0,0.95
12914.0,0.93
12916.0,1.06
12918.0,1.04
12920.0,1.02
12922.0,1.02
12924.0,1.03
12926.0,1.05
12929.0,1.04
12931.0,1.07
12933.0,1.09
12935.0,1.06
12937.0,1.04
12939.0,0.97
12941.0,0.98
12943.0,0.98
12945.0,0.94
12947.0,1.03
12949.0,1.05
12951.0,1.06
12953.0,1.03
12954.0,0.96
12956.0,0.96
12958.0,1.01
12960.0,1.09
12962.0,1.11
12964.0,1.13
12966.0,1.15
12968.0,1.11
12971.0,1.06
12973.0,1.02
12975.0,1.07
12977.0,1.23
12979.0,1.31
12981.0,1.37
12983.0,1.43
12985.0,1.48
12987.0,1.52
12989.0,1.57
12991.0,1.63
12993.0,1.63
12995.0,1.59
12997.0,1.69
12998.0,1.73
13000.0,1.72
13002.0,1.65
13004.0,1.73
13006.0,1.75
13008.0,1.84
13010.0,1.79
13012.0,1.77
13015.0,1.67
13017.0,1.71
13019.0,1.72
13021.0,1.8
13023.0,1.8
13025.0,1.75
13027.0,1.83
13029.0,1.81
13031.0,1.79
13033.0,1.86
13035.0,1.78
13037.0,1.79
13039.0,1.77
13040.0,1.83
13042.0,1.86
13044.0,1.85
13046.0,1.89
13048.0,1.84
13050.0,1.81
13052.0,1.91
13054.0,1.93
13057.0,1.96
13059.0,2.0
13061.0,1.91
13063.0,1.93
13065.0,1.93
13067.0,1.93
13069.0,1.9
13071.0,1.89
13073.0,1.88
13075.0,1.87
13077.0,1.94
13079.0,1.91
13081.0,1.84
13082.0,1.87
13084.0,1.85
13086.0,1.88
13088.0,1.85
13090.0,1.88
13092.0,1.93
13094.0,1.91
13096.0,1.9
13099.0,1.85
13101.0,1.81
13103.0,1.75
13105.0,1.67
13107.0,1.62
13109.0,1.66
13111.0,1.7
13113.0,1.77
13115.0,1.74
13117.0,1.76
13119.0,1.76
13121.0,1.78
13123.0,1.73
13125.0,1.67
13126.0,1.7
13128.0,1.71
13130.0,1.66
13132.0,1.69
13134.0,1.69
13136.0,1.73
13138.0,1.64
13140.0,1.64
13143.0,1.66
13145.0,1.64
13147.0,1.52
13149.0,1.49
13151.0,1.45
13153.0,1.5
13155.0,1.54
13157.0,1.58
13159.0,1.6
13161.0,1.68
13163.0,1.67
13165.0,1.63
13167.0,1.64
13168.0,1.61
13170.0,1.55
13172.0,1.52
13174.0,1.49
13176.0,1.55
13178.0,1.6
13180.0,1.71
13182.0,1.75
13185.0,1.72
13187.0,1.73
13189.0,1.81
13191.0,1.75
13193.0,1.7
13195.0,1.62
13197.0,1.66
13199.0,1.71
13201.0,1.65
13203.0,1.58
13205.0,1.57
13207.0,1.55
13209.0,1.55
13210.0,1.56
13212.0,1.55
13214.0,1.5
13216.0,1.56
13218.0,1.52
13220.0,1.53
13222.0,1.53
13224.0,1.47
13227.0,1.51
13229.0,1.48
13231.0,1.51
13233.0,1.48
13235.0,1.41
13237.0,1.47
13239.0,1.41
13241.0,1.34
13243.0,1.41
13245.0,1.42
13247.0,1.49
13249.0,1.52
13251.0,1.49
13253.0,1.48
13254.0,1.43
13256.0,1.43
13258.0,1.45
13260.0,1.46
13262.0,1.46
13264.0,1.38
13266.0,1.41
13268.0,1.33
13271.0,1.33
13273.0,1.36
13275.0,1.33
13277.0,1.38
13279.0,1.44
13281.0,1.4
13283.0,1.39
13285.0,1.33
13287.0,1.38
13289.0,1.39
13291.0,1.35
13293.0,1.4
13295.0,1.36
13296.0,1.43
13298.0,1.45
13300.0,1.49
13302.0,1.43
13304.0,1.43
13306.0,1.44
13308.0,1.47
13310.0,1.48
13313.0,1.51
13315.0,1.49
13317.0,1.54
13319.0,1.46
13321.0,1.48
13323.0,1.49
13325.0,1.49
13327.0,1.55
13329.0,1.54
13331.0,1.47
13333.0,1.5
13335.0,1.52
13337.0,1.58
13338.0,1.6
13340.0,1.57
13342.0,1.62
13344.0,1.64
13346.0,1.68
13348.0,1.63
13350.0,1.55
13352.0,1.49
13355.0,1.43
13357.0,1.52
13359.0,1.59
13361.0,1.55
13363.0,1.57
13365.0,1.57
13367.0,1.62
13369.0,1.61
13371.0,1.58
13373.0,1.57
13375.0,1.5
13377.0,1.58
13379.0,1.55
13381.0,1.49
13382.0,1.39
13384.0,1.33
13386.0,1.26
13388.0,1.28
13390.0,1.39
13392.0,1.46
13394.0,1.43
13396.0,1.54
13399.0,1.59
13401.0,1.65
13403.0,1.6
13405.0,1.52
13407.0,1.53
13409.0,1.52
13411.0,1.49
13413.0,1.44
13415.0,1.43
13417.0,1.56
13419.0,1.56
13421.0,1.54
13423.0,1.51
13424.0,1.45
13426.0,1.55
13428.0,1.52
13430.0,1.61
13432.0,1.66
13434.0,1.59
13436.0,1.68
13438.0,1.65
13441.0,1.61
13443.0,1.62
13445.0,1.57
13447.0,1.69
13449.0,1.69
13451.0,1.6
13453.0,1.49
13455.0,1.46
13457.0,1.52
13459.0,1.79
13461.0,1.78
13463.0,1.75
13465.0,1.78
13466.0,1.84
13468.0,1.81
13470.0,1.7
13472.0,1.66
13474.0,1.72
13476.0,1.85
13478.0,1.8
13480.0,1.73
13483.0,1.58
13485.0,1.38
13487.0,1.38
13489.0,1.37
13491.0,1.36
13493.0,1.41
13495.0,1.32
13497.0,1.54
13499.0,1.65
13501.0,1.59
13503.0,1.47
13505.0,1.46
13507.0,1.53
13509.0,1.52
13510.0,1.55
13512.0,1.52
13514.0,1.43
13516.0,1.47
13518.0,1.43
13520.0,1.4
13522.0,1.36
13524.0,1.36
13527.0,1.45
13529.0,1.45
13531.0,1.5
13533.0,1.43
13535.0,1.3
13537.0,1.35
13539.0,1.35
13541.0,1.32
13543.0,1.32
13545.0,1.19
13547.0,1.34
13549.0,1.57
13551.0,1.67
13552.0,1.62
13554.0,1.57
13556.0,1.62
13558.0,1.6
13560.0,1.66
13562.0,1.62
13564.0,1.62
13566.0,1.66
13569.0,1.53
13571.0,1.55
13573.0,1.56
13575.0,1.63
13577.0,1.65
13579.0,1.67
13581.0,1.77
13583.0,1.79
13585.0,1.68
13587.0,1.75
13589.0,1.67
13591.0,1.71
13593.0,1.74
13594.0,1.69
13596.0,1.68
13598.0,1.57
13600.0,1.53
13602.0,1.55
13604.0,1.51
13606.0,1.52
13608.0,1.47
13611.0,1.57
13613.0,1.53
13615.0,1.47
13617.0,1.42
13619.0,1.35
13621.0,1.3
13623.0,1.46
13625.0,1.45
13627.0,1.34
13629.0,1.3
13631.0,1.24
13633.0,1.19
13635.0,1.18
13637.0,1.24
13638.0,1.21
13640.0,1.2
13642.0,1.35
13644.0,1.42
13646.0,1.48
13648.0,1.4
13650.0,1.38
13652.0,1.36
13655.0,1.42
13657.0,1.41
13659.0,1.29
13661.0,1.25
13663.0,1.33
13665.0,1.54
13667.0,1.63
13669.0,1.48
13671.0,1.41
13673.0,1.4
13675.0,1.35
13677.0,1.27
13679.0,1.21
13680.0,1.23
13682.0,1.33
13684.0,1.28
13686.0,1.31
13688.0,1.24
13690.0,1.12
13692.0,1.02
13694.0,0.89
13697.0,0.96
13699.0,1.1
13701.0,1.14
13703.0,1.06
13705.0,1.0
13707.0,0.91
13709.0,1.1
13711.0,1.21
13713.0,1.14
13715.0,1.18
13717.0,1.29
13719.0,1.29
13721.0,1.25
13722.0,1.3
13724.0,1.25
13726.0,1.27
13728.0,1.3
13730.0,1.33
13732.0,1.36
13734.0,1.3
13736.0,1.28
13739.0,1.23
13741.0,1.23
13743.0,1.25
13745.0,1.27
13747.0,1.38
13749.0,1.25
13751.0,1.21
13753.0,1.34
13755.0,1.29
13757.0,1.3
13759.0,1.32
13761.0,1.35
13763.0,1.31
13765.0,1.21
13766.0,1.19
13768.0,1.22
13770.0,1.24
13772.0,1.21
13774.0,1.33
13776.0,1.35
13778.0,1.32
13780.0,1.36
13783.0,1.35
13785.0,1.33
13787.0,1.39
13789.0,1.32
13791.0,1.37
13793.0,1.41
13795.0,1.39
13797.0,1.49
13799.0,1.46
13801.0,1.45
13803.0,1.37
13805.0,1.33
13807.0,1.31
13808.0,1.25
13810.0,1.22
13812.0,1.21
13814.0,1.27
13816.0,1.4
13818.0,1.3
13820.0,1.28
13822.0,1.22
13825.0,1.22
13827.0,1.41
13829.0,1.53
13831.0,1.49
13833.0,1.39
13835.0,1.3
13837.0,1.35
13839.0,1.43
13841.0,1.4
13843.0,1.3
13845.0,1.18
13847.0,1.26
13849.0,1.25
13850.0,1.31
13852.0,1.28
13854.0,1.28
13856.0,1.25
13858.0,1.29
13860.0,1.26
13862.0,1.24
13864.0,1.35
13867.0,1.51
13869.0,1.46
13871.0,1.36
13873.0,1.31
13875.0,1.33
13877.0,1.43
13879.0,1.46
13881.0,1.47
13883.0,1.5
13885.0,1.46
13887.0,1.48
13889.0,1.44
13891.0,1.55
13893.0,1.66
13894.0,1.55
13896.0,1.55
13898.0,1.6
13900.0,1.6
13902.0,1.6
13904.0,1.62
13906.0,1.58
13908.0,1.6
13911.0,1.53
13913.0,1.5
13915.0,1.46
13917.0,1.5
13919.0,1.45
13921.0,1.51
13923.0,1.73
13925.0,1.76
13927.0,1.74
13929.0,1.71
13931.0,1.67
13933.0,1.62
13935.0,1.57
13936.0,1.55
13938.0,1.55
13940.0,1.57
13942.0,1.58
13944.0,1.91
13946.0,2.16
13948.0,2.23
13950.0,2.22
13953.0,2.03
13955.0,2.06
13957.0,2.24
13959.0,2.32
13961.0,2.38
13963.0,2.32
13965.0,2.24
13967.0,2.03
13969.0,1.8
13971.0,1.7
13973.0,1.73
13975.0,1.76
13977.0,1.8
13978.0,1.8
13980.0,1.78
13982.0,1.74
13984.0,1.68
13986.0,1.78
13988.0,1.72
13990.0,1.73
13992.0,1.67
13995.0,1.71
13997.0,1.75
13999.0,1.73
14001.0,1.66
14003.0,1.74
14005.0,1.67
14007.0,1.66
14009.0,1.7
14011.0,1.72
14013.0,1.64
14015.0,1.67
14017.0,1.72
14019.0,1.7
14021.0,1.56
14022.0,1.52
14024.0,1.48
14026.0,1.56
14028.0,1.57
14030.0,1.54
14032.0,1.51
14034.0,1.51
14036.0,1.59
14039.0,1.56
14041.0,1.48
14043.0,1.52
14045.0,1.6
14047.0,1.75
14049.0,1.62
14051.0,1.47
14053.0,1.35
14055.0,1.33
14057.0,1.37
14059.0,1.42
14061.0,1.4
14063.0,1.35
14064.0,1.34
14066.0,1.35
14068.0,1.29
14070.0,1.24
14072.0,1.34
14074.0,1.41
14076.0,1.41
14078.0,1.36
14081.0,1.35
14083.0,1.36
14085.0,1.34
14087.0,1.35
14089.0,1.5
14091.0,1.62
14093.0,1.58
14095.0,1.57
14097.0,1.61
14099.0,1.51
14101.0,1.38
14103.0,1.37
14105.0,1.34
14106.0,1.36
14108.0,1.44
14110.0,1.46
14112.0,1.45
14114.0,1.53
14116.0,1.54
14118.0,1.51
14120.0,1.49
14123.0,1.51
14125.0,1.59
14127.0,1.65
14129.0,1.64
14131.0,1.57
14133.0,1.5
14135.0,1.55
14137.0,1.55
14139.0,1.47
14141.0,1.43
14143.0,1.42
14145.0,1.42
14147.0,1.53
14149.0,1.46
14150.0,1.36
14152.0,1.31
14154.0,1.34
14156.0,1.3
14158.0,1.31
14160.0,1.43
14162.0,1.44
14164.0,1.37
14167.0,1.35
14169.0,1.3
14171.0,1.48
14173.0,1.39
14175.0,1.43
14177.0,1.49
14179.0,1.63
14181.0,1.77
14183.0,1.75
14185.0,1.65
14187.0,1.59
14189.0,1.52
14191.0,1.57
14192.0,1.53
14194.0,1.53
14196.0,1.6
14198.0,1.58
14200.0,1.62
14202.0,1.67
14204.0,1.6
14206.0,1.65
14209.0,1.72
14211.0,1.75
14213.0,1.8
14215.0,1.88
14217.0,1.84
14219.0,1.86
14221.0,1.92
14223.0,2.14
14225.0,2.19
14227.0,2.29
14229.0,2.05
14231.0,1.91
14233.0,1.78
14234.0,1.75
14236.0,1.82
14238.0,1.94
14240.0,2.05
14242.0,1.94
14244.0,1.96
14246.0,1.94
14248.0,1.98
14251.0,1.93
14253.0,1.91
14255.0,1.82
14257.0,1.76
14259.0,1.69
14261.0,1.6
14263.0,1.59
14265.0,1.74
14267.0,1.87
14269.0,2.08
14271.0,2.12
14273.0,2.07
14275.0,2.21
14277.0,2.32
14278.0,2.2
14280.0,2.13
14282.0,2.01
14284.0,1.99
14286.0,1.95
14288.0,1.89
14290.0,1.93
14292.0,1.81
14295.0,1.76
14297.0,1.75
14299.0,1.6
14301.0,1.55
14303.0,1.54
14305.0,1.45
14307.0,1.48
14309.0,1.47
14311.0,1.46
14313.0,1.45
14315.0,1.46
14317.0,1.45
14319.0,1.34
14320.0,1.36
14322.0,1.39
14324.0,1.47
14326.0,1.52
14328.0,1.4
14330.0,1.36
14332.0,1.24
14334.0,1.19
14337.0,1.24
14339.0,1.21
14341.0,1.28
14343.0,1.26
14345.0,1.24
14347.0,1.22
14349.0,1.24
14351.0,1.15
14353.0,1.12
14355.0,1.21
14357.0,1.33
14359.0,1.48
14361.0,1.58
14362.0,1.67
14364.0,1.62
14366.0,1.57
14368.0,1.53
14370.0,1.4
14372.0,1.25
14374.0,1.41
14376.0,1.49
14379.0,1.51
14381.0,1.43
14383.0,1.36
14385.0,1.18
14387.0,1.2
14389.0,1.18
14391.0,1.14
14393.0,1.12
14395.0,1.08
14397.0,1.0
14399.0,1.0
14401.0,0.97
14403.0,0.95
14405.0,0.92
14406.0,1.01
14408.0,1.1
14410.0,1.13
14412.0,1.18
14414.0,1.26
14416.0,1.22
14418.0,1.07
14420.0,1.09
14423.0,1.15
14425.0,1.29
14427.0,1.18
14429.0,1.12
14431.0,1.18
14433.0,1.21
14435.0,1.18
14437.0,1.32
14439.0,1.43
14441.0,1.63
14443.0,1.52
14445.0,1.41
14447.0,1.39
14448.0,1.65
14450.0,1.5
14452.0,1.21
14454.0,1.11
14456.0,1.23
14458.0,1.38
14460.0,1.48
14462.0,1.64
14465.0,1.75
14467.0,1.79
14469.0,1.83
14471.0,1.77
14473.0,1.86
14475.0,1.78
14477.0,1.53
14479.0,1.34
14481.0,1.35
14483.0,1.42
14485.0,1.69
14487.0,1.6
14489.0,1.53
14491.0,1.58
14492.0,1.61
14494.0,1.59
14496.0,1.72
14498.0,1.86
14500.0,1.63
14502.0,1.73
14504.0,1.8
14507.0,1.86
14509.0,1.82
14511.0,1.87
14513.0,1.76
14515.0,1.77
14517.0,1.68
14519.0,1.63
14521.0,1.54
14523.0,1.59
14525.0,1.5
14527.0,1.55
14529.0,1.47
14531.0,1.63
14533.0,1.55
14534.0,1.55
14536.0,1.44
14538.0,1.3
14540.0,1.28
14542.0,1.33
14544.0,1.36
14546.0,1.31
14548.0,1.22
14551.0,1.15
14553.0,1.11
14555.0,1.08
14557.0,1.05
14559.0,1.2
14561.0,1.23
14563.0,1.21
14565.0,1.25
14567.0,1.26
14569.0,1.22
14571.0,1.19
14573.0,1.23
14575.0,1.34
14576.0,1.38
14578.0,1.3
14580.0,1.3
14582.0,1.28
14584.0,1.15
14586.0,1.06
14588.0,1.06
14590.0,1.1
14593.0,1.34
14595.0,1.4
14597.0,1.43
14599.0,1.5
14601.0,1.38
14603.0,1.37
14605.0,1.27
14607.0,1.31
14609.0,1.25
14611.0,1.24
14613.0,1.31
14615.0,1.3
14617.0,1.23
14619.0,1.15
14620.0,1.21
14622.0,1.3
14624.0,1.33
14626.0,1.25
14628.0,1.23
14630.0,1.2
14632.0,1.15
14635.0,1.17
14637.0,1.19
14639.0,1.14
14641.0,1.29
14643.0,1.46
14645.0,1.47
14647.0,1.35
14649.0,1.36
14651.0,1.36
14653.0,1.37
14655.0,1.32
14657.0,1.34
14659.0,1.37
14661.0,1.31
14662.0,1.3
14664.0,1.27
14666.0,1.17
14668.0,1.24
14670.0,1.29
14672.0,1.33
14674.0,1.44
14676.0,1.34
14679.0,1.38
14681.0,1.34
14683.0,1.39
14685.0,1.4
14687.0,1.32
14689.0,1.22
14691.0,1.23
14693.0,1.18
14695.0,1.29
14697.0,1.32
14699.0,1.36
14701.0,1.33
14703.0,1.45
14704.0,1.44
14706.0,1.49
14708.0,1.45
14710.0,1.52
14712.0,1.56
14714.0,1.55
14716.0,1.63
14718.0,1.55
14721.0,1.67
14723.0,1.88
14725.0,1.85
14727.0,1.98
14729.0,1.96
14731.0,1.88
14733.0,1.8
14735.0,1.68
14737.0,1.71
14739.0,1.74
14741.0,1.75
14743.0,1.78
14745.0,1.73
14747.0,1.55
14748.0,1.47
14750.0,1.37
14752.0,1.32
14754.0,1.18
14756.0,1.0
14758.0,1.0
14760.0,1.14
14763.0,0.98
14765.0,0.82
14767.0,0.72
14769.0,0.74
14771.0,0.79
14773.0,0.9
14775.0,1.04
14777.0,1.14
14779.0,1.15
14781.0,1.15
14783.0,1.16
14785.0,1.23
14787.0,1.17
14789.0,1.13
14790.0,1.19
14792.0,1.31
14794.0,1.42
14796.0,1.48
14798.0,1.43
14800.0,1.42
14802.0,1.45
14804.0,1.42
14807.0,1.47
14809.0,1.43
14811.0,1.37
14813.0,1.35
14815.0,1.36
14817.0,1.37
14819.0,1.38
14821.0,1.34
14823.0,1.33
14825.0,1.46
14827.0,1.5
14829.0,1.58
14831.0,1.49
14832.0,1.41
14834.0,1.47
14836.0,1.52
14838.0,1.54
14840.0,1.64
14842.0,1.66
14844.0,1.67
14846.0,1.6
14849.0,1.51
14851.0,1.5
14853.0,1.52
14855.0,1.5
14857.0,1.48
14859.0,1.46
14861.0,1.39
14863.0,1.3
14865.0,1.15
14867.0,1.17
14869.0,1.25
14871.0,1.28
14873.0,1.21
14875.0,1.03
14876.0,0.81
14878.0,0.78
14880.0,0.97
14882.0,0.9
14884.0,0.76
14886.0,0.73
14888.0,0.68
14891.0,0.87
14893.0,0.99
14895.0,1.08
14897.0,1.14
14899.0,1.13
14901.0,1.04
14903.0,0.97
14905.0,0.94
14907.0,1.08
14909.0,1.0
14911.0,1.03
14913.0,0.91
14915.0,0.94
14917.0,0.83
14918.0,0.77
14920.0,0.81
14922.0,0.93
14924.0,1.06
14926.0,1.15
14928.0,1.21
14930.0,1.38
14932.0,1.4
14935.0,1.48
14937.0,1.53
14939.0,1.4
14941.0,1.43
14943.0,1.36
14945.0,1.39
14947.0,1.43
14949.0,1.38
14951.0,1.32
14953.0,1.34
14955.0,1.35
14957.0,1.31
14959.0,1.23
14960.0,1.3
14962.0,1.26
14964.0,1.33
14966.0,1.28
14968.0,1.25
14970.0,1.25
14972.0,1.38
14974.0,1.46
14977.0,1.58
14979.0,1.74
14981.0,1.76
14983.0,1.75
14985.0,1.8
14987.0,1.83
14989.0,1.74
14991.0,1.69
14993.0,1.75
14995.0,1.79
14997.0,1.8
14999.0,1.86
15001.0,1.81
15003.0,1.76
15004.0,1.69
15006.0,1.76
15008.0,1.75
15010.0,1.86
15012.0,1.87
15014.0,1.89
15016.0,1.88
15019.0,1.87
15021.0,1.89
15023.0,1.83
15025.0,1.85
15027.0,1.78
15029.0,1.8
15031.0,1.74
15033.0,1.69
15035.0,1.65
15037.0,1.6
15039.0,1.66
15041.0,1.71
15043.0,1.64
15045.0,1.65
15046.0,1.61
15048.0,1.65
15050.0,1.68
15052.0,1.66
15054.0,1.68
15056.0,1.78
15058.0,1.81
15060.0,1.78
15063.0,1.81
15065.0,1.92
15067.0,1.82
15069.0,1.77
15071.0,1.85
15073.0,1.9
15075.0,1.99
15077.0,2.07
15079.0,2.06
15081.0,2.0
15083.0,1.93
15085.0,1.83
15087.0,1.79
15088.0,1.85
15090.0,1.85
15092.0,1.76
15094.0,1.84
15096.0,1.86
15098.0,1.84
15100.0,1.74
15102.0,1.72
15105.0,1.66
15107.0,1.66
15109.0,1.62
15111.0,1.61
15113.0,1.59
15115.0,1.61
15117.0,1.55
15119.0,1.56
15121.0,1.49
15123.0,1.54
15125.0,1.52
15127.0,1.56
15129.0,1.49
15131.0,1.45
15132.0,1.34
15134.0,1.36
15136.0,1.45
15138.0,1.58
15140.0,1.65
15142.0,1.63
15144.0,1.66
15147.0,1.66
15149.0,1.68
15151.0,1.48
15153.0,1.48
15155.0,1.55
15157.0,1.65
15159.0,1.72
15161.0,1.63
15163.0,1.52
15165.0,1.52
15167.0,1.53
15169.0,1.58
15171.0,1.56
15173.0,1.6
15174.0,1.59
15176.0,1.71
15178.0,1.67
15180.0,1.61
15182.0,1.53
15184.0,1.52
15186.0,1.4
15188.0,1.37
15191.0,1.45
15193.0,1.47
15195.0,1.51
15197.0,1.52
15199.0,1.49
15201.0,1.47
15203.0,1.45
15205.0,1.41
15207.0,1.43
15209.0,1.37
15211.0,1.4
15213.0,1.4
15215.0,1.39
15216.0,1.36
15218.0,1.37
15220.0,1.38
15222.0,1.42
15224.0,1.47
15226.0,1.49
15228.0,1.45
15230.0,1.43
15233.0,1.39
15235.0,1.43
15237.0,1.36
15239.0,1.45
15241.0,1.52
15243.0,1.54
15245.0,1.48
15247.0,1.43
15249.0,1.32
15251.0,1.3
15253.0,1.35
15255.0,1.38
15257.0,1.4
15259.0,1.48
15260.0,1.46
15262.0,1.5
15264.0,1.45
15266.0,1.45
15268.0,1.43
15270.0,1.41
15272.0,1.46
15275.0,1.55
15277.0,1.56
15279.0,1.58
15281.0,1.54
15283.0,1.52
15285.0,1.5
15287.0,1.51
15289.0,1.63
15291.0,1.7
15293.0,1.69
15295.0,1.72
15297.0,1.78
15299.0,1.8
15301.0,1.74
15302.0,1.68
15304.0,1.7
15306.0,1.7
15308.0,1.81
15310.0,1.79
15312.0,1.78
15314.0,1.8
15316.0,1.68
15319.0,1.6
15321.0,1.64
15323.0,1.76
15325.0,1.85
15327.0,1.79
15329.0,1.71
15331.0,1.64
15333.0,1.55
15335.0,1.56
15337.0,1.55
15339.0,1.48
15341.0,1.58
15343.0,1.55
15344.0,1.58
15346.0,1.54
15348.0,1.53
15350.0,1.41
15352.0,1.4
15354.0,1.42
15356.0,1.4
15358.0,1.43
15361.0,1.37
15363.0,1.29
15365.0,1.27
15367.0,1.24
15369.0,1.19
15371.0,1.15
15373.0,1.29
15375.0,1.35
15377.0,1.32
15379.0,1.31
15381.0,1.26
15383.0,1.25
15385.0,1.26
15387.0,1.25
15388.0,1.24
15390.0,1.2
15392.0,1.25
15394.0,1.26
15396.0,1.15
15398.0,1.22
15400.0,1.24
15403.0,1.1
15405.0,1.03
15407.0,1.04
15409.0,1.07
15411.0,1.09
15413.0,1.11
15415.0,1.13
15417.0,1.16
15419.0,1.21
15421.0,1.21
15423.0,1.25
15425.0,1.29
15427.0,1.35
15429.0,1.38
15430.0,1.32
15432.0,1.35
15434.0,1.46
15436.0,1.49
15438.0,1.48
15440.0,1.58
15442.0,1.6
15444.0,1.6
15447.0,1.61
15449.0,1.54
15451.0,1.45
15453.0,1.59
15455.0,1.6
15457.0,1.6
15459.0,1.56
15461.0,1.55
15463.0,1.52
15465.0,1.51
15467.0,1.45
15469.0,1.46
15471.0,1.48
15472.0,1.56
15474.0,1.61
15476.0,1.54
15478.0,1.48
15480.0,1.44
15482.0,1.43
15484.0,1.51
15486.0,1.42
15489.0,1.46
15491.0,1.44
15493.0,1.44
15495.0,1.45
15497.0,1.47
15499.0,1.54
15501.0,1.55
15503.0,1.57
15505.0,1.58
15507.0,1.57
15509.0,1.66
15511.0,1.62
15513.0,1.71
15515.0,1.69
15516.0,1.66
15518.0,1.68
15520.0,1.73
15522.0,1.8
15524.0,1.86
15526.0,1.85
15528.0,1.79
15531.0,1.64
15533.0,1.66
15535.0,1.66
15537.0,1.61
15539.0,1.63
15541.0,1.68
15543.0,1.73
15545.0,1.77
15547.0,1.74
15549.0,1.66
15551.0,1.66
15553.0,1.73
15555.0,1.52
15557.0,1.58
15558.0,1.72
15560.0,1.76
15562.0,1.77
15564.0,1.69
15566.0,1.38
15568.0,1.28
15570.0,1.18
15572.0,1.26
15575.0,1.33
15577.0,1.4
15579.0,1.42
15581.0,1.41
15583.0,1.31
15585.0,1.28
15587.0,1.26
15589.0,1.25
15591.0,1.33
15593.0,1.36
15595.0,1.48
15597.0,1.46
15599.0,1.19
15600.0,1.16
15602.0,1.26
15604.0,1.37
15606.0,1.4
15608.0,1.28
15610.0,1.28
15612.0,1.3
15614.0,1.22
15617.0,1.19
15619.0,1.25
15621.0,1.33
15623.0,1.38
15625.0,1.32
15627.0,1.32
15629.0,1.48
15631.0,1.49
15633.0,1.42
15635.0,1.46
15637.0,1.51
15639.0,1.52
15641.0,1.45
15643.0,1.42
15644.0,1.43
15646.0,1.5
15648.0,1.39
15650.0,1.28
15652.0,1.35
15654.0,1.37
15656.0,1.47
15659.0,1.42
15661.0,1.45
15663.0,1.47
15665.0,1.41
15667.0,1.27
15669.0,1.28
15671.0,1.37
15673.0,1.53
15675.0,1.61
15677.0,1.64
15679.0,1.58
15681.0,1.58
15683.0,1.62
15685.0,1.59
15686.0,1.56
15688.0,1.57
15690.0,1.73
15692.0,1.96
15694.0,1.97
15696.0,1.92
15698.0,1.84
15700.0,1.94
15703.0,1.95
15705.0,1.98
15707.0,1.86
15709.0,1.94
15711.0,1.88
15713.0,1.89
15715.0,1.83
15717.0,1.74
15719.0,1.69
15721.0,1.71
15723.0,1.79
15725.0,1.81
15727.0,1.72
15728.0,1.67
15730.0,1.71
15732.0,1.68
15734.0,1.7
15736.0,1.73
15738.0,1.83
15740.0,1.82
15742.0,1.8
15745.0,1.76
15747.0,1.65
15749.0,1.61
15751.0,1.52
15753.0,1.53
15755.0,1.54
15757.0,1.5
15759.0,1.49
15761.0,1.46
15763.0,1.49
15765.0,1.34
15767.0,1.2
15769.0,1.26
15771.0,1.28
15772.0,1.28
15774.0,1.24
15776.0,1.07
15778.0,1.09
15780.0,1.06
15782.0,1.05
15784.0,1.1
15787.0,1.1
15789.0,0.98
15791.0,0.9
15793.0,0.9
15795.0,0.92
15797.0,0.92
15799.0,0.99
15801.0,1.06
15803.0,1.01
15805.0,0.85
15807.0,0.99
15809.0,1.11
15811.0,1.19
15813.0,1.21
15814.0,1.06
15816.0,0.98
15818.0,0.98
15820.0,1.04
15822.0,1.23
15824.0,1.25
15826.0,1.17
15828.0,1.19
15831.0,1.2
15833.0,1.25
15835.0,1.31
15837.0,1.33
15839.0,1.49
15841.0,1.74
15843.0,1.74
15845.0,1.72
15847.0,1.65
15849.0,1.56
15851.0,1.35
15853.0,1.35
15855.0,1.5
15856.0,1.63
15858.0,1.62
15860.0,1.61
15862.0,1.57
15864.0,1.46
15866.0,1.35
15868.0,1.35
15870.0,1.29
15873.0,1.36
15875.0,1.3
15877.0,1.35
15879.0,1.44
15881.0,1.46
15883.0,1.33
15885.0,1.28
15887.0,1.23
15889.0,1.2
15891.0,1.22
15893.0,1.2
15895.0,1.16
15897.0,1.17
15899.0,1.06
15900.0,1.08
15902.0,1.04
15904.0,1.08
15906.0,1.02
15908.0,1.06
15910.0,1.08
15912.0,1.03
15915.0,0.95
15917.0,0.97
15919.0,0.98
15921.0,1.03
15923.0,1.13
15925.0,1.16
15927.0,1.15
15929.0,1.13
15931.0,1.12
15933.0,1.14
15935.0,1.2
15937.0,1.1
15939.0,1.29
15941.0,1.29
15942.0,1.32
15944.0,1.31
15946.0,1.25
15948.0,1.2
15950.0,1.28
15952.0,1.33
15954.0,1.39
15956.0,1.33
15959.0,1.38
15961.0,1.29
15963.0,1.29
15965.0,1.29
15967.0,1.37
15969.0,1.3
15971.0,1.28
15973.0,1.39
15975.0,1.44
15977.0,1.41
15979.0,1.37
15981.0,1.3
15983.0,1.3
15985.0,1.33
15986.0,1.3
15988.0,1.42
15990.0,1.55
15992.0,1.61
15994.0,1.55
15996.0,1.5
15998.0,1.51
16001.0,1.5
16003.0,1.49
16005.0,1.57
16007.0,1.57
16009.0,1.5
16011.0,1.38
16013.0,1.42
16015.0,1.52
16017.0,1.57
16019.0,1.57
16021.0,1.66
16023.0,1.78
16025.0,1.72
16027.0,1.64
16028.0,1.67
16030.0,1.65
16032.0,1.72
16034.0,1.75
16036.0,1.8
16038.0,1.83
16040.0,1.82
16043.0,1.86
16045.0,1.92
16047.0,1.85
16049.0,1.8
16051.0,1.78
16053.0,1.78
16055.0,1.73
16057.0,1.81
16059.0,1.79
16061.0,1.77
16063.0,1.75
16065.0,1.67
16067.0,1.56
16069.0,1.6
16070.0,1.58
16072.0,1.66
16074.0,1.77
16076.0,1.79
16078.0,1.75
16080.0,1.74
16082.0,1.64
16084.0,1.62
16087.0,1.63
16089.0,1.72
16091.0,1.74
16093.0,1.85
16095.0,1.92
16097.0,1.96
16099.0,1.95
16101.0,1.91
16103.0,1.86
16105.0,1.79
16107.0,1.81
16109.0,1.78
16111.0,1.74
16113.0,1.69
16114.0,1.64
16116.0,1.59
16118.0,1.64
16120.0,1.74
16122.0,1.91
16124.0,1.89
16126.0,1.81
16129.0,1.72
16131.0,1.73
16133.0,1.7
16135.0,1.68
16137.0,1.66
16139.0,1.69
16141.0,1.68
16143.0,1.72
16145.0,1.75
16147.0,1.74
16149.0,1.69
16151.0,1.63
16153.0,1.61
16155.0,1.72
16156.0,1.77
16158.0,1.86
16160.0,1.83
16162.0,1.86
16164.0,1.82
16166.0,1.7
16168.0,1.73
16171.0,1.8
16173.0,1.93
16175.0,1.98
16177.0,2.06
16179.0,2.18
16181.0,2.22
16183.0,2.2
16185.0,2.24
16187.0,2.26
16189.0,2.32
16191.0,2.35
16193.0,2.35
16195.0,2.31
16197.0,2.28
16198.0,2.16
16200.0,2.22
16202.0,2.13
16204.0,2.12
16206.0,1.93
16208.0,1.9
16210.0,1.75
16212.0,1.71
16215.0,1.6
16217.0,1.58
16219.0,1.52
16221.0,1.62
16223.0,1.59
16225.0,1.56
16227.0,1.49
16229.0,1.62
16231.0,1.65
16233.0,1.55
16235.0,1.63
16237.0,1.64
16239.0,1.63
16241.0,1.76
16242.0,1.73
16244.0,1.71
16246.0,1.59
16248.0,1.57
16250.0,1.62
16252.0,1.55
16254.0,1.51
16257.0,1.41
16259.0,1.4
16261.0,1.37
16263.0,1.3
16265.0,1.26
16267.0,1.19
16269.0,1.24
16271.0,1.33
16273.0,1.31
16275.0,1.26
16277.0,1.37
16279.0,1.35
16281.0,1.42
16283.0,1.34
16284.0,1.29
16286.0,1.32
16288.0,1.45
16290.0,1.68
16292.0,1.7
16294.0,1.88
16296.0,1.85
16299.0,1.82
16301.0,1.86
16303.0,1.75
16305.0,1.66
16307.0,1.66
16309.0,1.8
16311.0,2.04
16313.0,2.11
16315.0,2.07
16317.0,2.1
16319.0,2.15
16321.0,2.19
16323.0,2.15
16325.0,2.02
16326.0,2.0
16328.0,1.96
16330.0,2.05
16332.0,1.91
16334.0,1.74
16336.0,1.54
16338.0,1.6
16340.0,1.66
16343.0,1.5
16345.0,1.5
16347.0,1.45
16349.0,1.43
16351.0,1.61
16353.0,1.51
16355.0,1.45
16357.0,1.49
16359.0,1.53
16361.0,1.5
16363.0,1.31
16365.0,1.2
16367.0,1.15
16369.0,1.22
16370.0,1.43
16372.0,1.43
16374.0,1.32
16376.0,1.42
16378.0,1.39
16380.0,1.49
16382.0,1.35
16385.0,0.98
16387.0,0.71
16389.0,0.7
16391.0,0.76
16393.0,0.87
16395.0,0.92
16397.0,0.9
16399.0,0.85
16401.0,1.11
16403.0,1.0
16405.0,0.93
16407.0,1.05
16409.0,1.23
16411.0,1.32
16412.0,1.35
16414.0,1.32
16416.0,1.15
16418.0,1.31
16420.0,1.6
16422.0,1.65
16424.0,1.56
16427.0,1.5
16429.0,1.5
16431.0,1.49
16433.0,1.31
16435.0,1.16
16437.0,1.09
16439.0,1.07
16441.0,1.16
16443.0,1.2
16445.0,1.29
16447.0,1.24
16449.0,1.38
16451.0,1.66
16453.0,1.7
16454.0,1.71
16456.0,1.69
16458.0,1.65
16460.0,1.66
16462.0,1.51
16464.0,1.49
16466.0,1.45
16468.0,1.52
16471.0,1.62
16473.0,1.62
16475.0,1.8
16477.0,1.83
16479.0,1.83
16481.0,1.85
16483.0,1.72
16485.0,1.51
16487.0,1.47
16489.0,1.56
16491.0,1.72
16493.0,1.62
16495.0,1.7
16497.0,1.78
16498.0,1.93
16500.0,2.01
16502.0,1.9
16504.0,1.8
16506.0,1.81
16508.0,1.81
16510.0,1.79
16513.0,1.65
16515.0,1.39
16517.0,1.29
16519.0,1.19
16521.0,1.31
16523.0,1.3
16525.0,1.17
16527.0,1.15
16529.0,1.08
16531.0,0.94
16533.0,0.76
16535.0,0.71
16537.0,0.75
16539.0,0.83
16540.0,0.91
16542.0,0.9
16544.0,1.08
16546.0,1.03
16548.0,0.71
16550.0,0.7
16552.0,0.59
16555.0,0.87
16557.0,0.94
16559.0,0.96
16561.0,0.95
16563.0,0.95
16565.0,0.98
16567.0,1.05
16569.0,1.29
16571.0,1.49
16573.0,1.57
16575.0,1.39
16577.0,1.17
16579.0,1.0
16581.0,0.89
16582.0,0.92
16584.0,0.97
16586.0,0.99
16588.0,1.1
16590.0,1.52
16592.0,1.77
16594.0,1.75
16596.0,1.97
16599.0,2.17
16601.0,2.17
16603.0,2.08
16605.0,2.08
16607.0,1.95
16609.0,1.92
16611.0,1.87
16613.0,1.87
16615.0,1.85
16617.0,1.82
16619.0,1.78
16621.0,1.75
16623.0,1.71
16625.0,1.67
16626.0,1.63
16628.0,1.59
16630.0,1.56
16632.0,1.54
16634.0,1.51
16636.0,1.49
16638.0,1.48
16641.0,1.46
16643.0,1.45
16645.0,1.43
16647.0,1.41
16649.0,1.39
16651.0,1.38
16653.0,1.37
16655.0,1.36
16657.0,1.35
16659.0,1.36
16661.0,1.35
16663.0,1.35
16665.0,1.33
16667.0,1.33
16668.0,1.31
16670.0,1.3
16672.0,1.3
16674.0,1.31
16676.0,1.31
16678.0,1.3
16680.0,1.31
16683.0,1.32
16685.0,1.31
16687.0,1.31
16689.0,1.3
16691.0,1.29
16693.0,1.29
16695.0,1.29
16697.0,1.3
16699.0,1.31
16701.0,1.31
16703.0,1.31
16705.0,1.31
16707.0,1.3
16709.0,1.3
16711.0,1.29
16712.0,1.3
16714.0,1.3
16716.0,1.32
16718.0,1.32
16720.0,1.33
16722.0,1.33
16724.0,1.33
16727.0,1.32
16729.0,1.32
16731.0,1.32
16733.0,1.33
16735.0,1.33
16737.0,1.33
16739.0,1.34
16741.0,1.34
16743.0,1.35
16745.0,1.34
16747.0,1.35
16749.0,1.34
16751.0,1.35
16753.0,1.35
16754.0,1.35
16756.0,1.35
16758.0,1.37
16760.0,1.36
16762.0,1.37
16764.0,1.36
16766.0,1.37
16769.0,1.36
16771.0,1.36
16773.0,1.35
16775.0,1.37
16777.0,1.37
16779.0,1.38
16781.0,1.38
16783.0,1.4
16785.0,1.39
16787.0,1.38
16789.0,1.38
16791.0,1.38
16793.0,1.38
16795.0,1.38
16796.0,1.39
16798.0,1.4
16800.0,1.4
16802.0,1.4
16804.0,1.4
16806.0,1.39
16808.0,1.39
16811.0,1.38
16813.0,1.39
16815.0,1.38
16817.0,1.32
16819.0,1.33
16821.0,1.35
16823.0,1.36
16825.0,1.41
16827.0,1.43
16829.0,1.44
16831.0,1.43
16833.0,1.44
16835.0,1.44
16837.0,1.44
16839.0,1.44
16840.0,1.45
16842.0,1.45
16844.0,1.44
16846.0,1.44
16848.0,1.43
16850.0,1.44
16852.0,1.43
16855.0,1.44
16857.0,1.44
16859.0,1.45
16861.0,1.45
16863.0,1.45
16865.0,1.45
16867.0,1.45
16869.0,1.43
16871.0,1.43
16873.0,1.43
16875.0,1.44
16877.0,1.44
16879.0,1.44
16881.0,1.45
16882.0,1.46
16884.0,1.45
16886.0,1.45
16888.0,1.44
16890.0,1.44
16892.0,1.44
16894.0,1.44
16897.0,1.35
16899.0,1.32
16901.0,1.28
16903.0,1.21
16905.0,1.19
16907.0,1.2
16909.0,1.15
16911.0,1.25
16913.0,1.38
16915.0,1.4
16917.0,1.4
16919.0,1.3
16921.0,1.18
16923.0,1.17
16924.0,1.35
16926.0,1.48
16928.0,1.49
16930.0,1.44
16932.0,1.39
16934.0,1.38
16936.0,1.42
16939.0,1.43
16941.0,1.36
16943.0,1.34
16945.0,1.43
16947.0,1.42
16949.0,1.39
16951.0,1.31
16953.0,1.23
16955.0,1.21
16957.0,1.18
16959.0,1.17
16961.0,1.16
16963.0,1.12
16965.0,1.0
16967.0,1.03
16968.0,1.08
16970.0,1.05
16972.0,0.94
16974.0,0.85
16976.0,0.89
16978.0,1.07
16980.0,1.07
16983.0,1.24
16985.0,1.36
16987.0,1.43
16989.0,1.53
16991.0,1.64
16993.0,1.51
16995.0,1.28
16997.0,1.2
16999.0,1.21
17001.0,1.08
17003.0,0.94
17005.0,0.82
17007.0,0.81
17009.0,0.98
17010.0,1.11
17012.0,1.1
17014.0,1.0
17016.0,1.0
17018.0,1.07
17020.0,1.05
17022.0,1.08
17025.0,1.2
17027.0,1.52
17029.0,1.68
17031.0,1.73
17033.0,1.79
17035.0,1.83
17037.0,1.78
17039.0,1.82
17041.0,1.89
17043.0,1.94
17045.0,1.79
17047.0,1.78
17049.0,1.8
17051.0,1.84
17052.0,1.72
17054.0,1.69
17056.0,1.68
17058.0,1.72
17060.0,1.65
17062.0,1.53
17064.0,1.5
17067.0,1.5
17069.0,1.53
17071.0,1.58
17073.0,1.63
17075.0,1.73
17077.0,1.74
17079.0,1.8
17081.0,1.58
17083.0,1.47
17085.0,1.5
17087.0,1.57
17089.0,1.74
17091.0,1.78
17093.0,1.85
17095.0,1.91
17096.0,1.98
17098.0,2.05
17100.0,1.99
17102.0,1.9
17104.0,1.75
17106.0,1.78
17108.0,1.79
17111.0,1.71
17113.0,1.62
17115.0,1.5
17117.0,1.51
17119.0,1.6
17121.0,1.64
17123.0,1.49
17125.0,1.47
17127.0,1.49
17129.0,1.48
17131.0,1.44
17133.0,1.4
17135.0,1.44
17137.0,1.49
17138.0,1.54
17140.0,1.46
17142.0,1.43
17144.0,1.46
17146.0,1.46
17148.0,1.54
17150.0,1.48
17153.0,1.43
17155.0,1.45
17157.0,1.45
17159.0,1.5
17161.0,1.52
17163.0,1.41
17165.0,1.3
17167.0,1.26
17169.0,1.38
17171.0,1.44
17173.0,1.38
17175.0,1.38
17177.0,1.41
17179.0,1.57
17180.0,1.55
17182.0,1.52
17184.0,1.5
17186.0,1.46
17188.0,1.53
17190.0,1.47
17192.0,1.44
17195.0,1.4
17197.0,1.43
17199.0,1.56
17201.0,1.46
17203.0,1.24
17205.0,1.27
17207.0,1.3
17209.0,1.35
17211.0,1.35
17213.0,1.36
17215.0,1.31
17217.0,1.28
17219.0,1.49
17221.0,1.49
17223.0,1.43
17224.0,1.52
17226.0,1.56
17228.0,1.48
17230.0,1.4
17232.0,1.32
17234.0,1.21
17236.0,1.22
17239.0,1.34
17241.0,1.23
17243.0,1.42
17245.0,1.43
17247.0,1.31
17249.0,1.4
17251.0,1.38
17253.0,1.31
17255.0,1.45
17257.0,1.44
17259.0,1.45
17261.0,1.43
17263.0,1.3
17265.0,1.23
17266.0,1.23
17268.0,1.37
17270.0,1.31
17272.0,1.31
17274.0,1.38
17276.0,1.38
17278.0,1.53
17281.0,1.72
17283.0,1.67
17285.0,1.6
17287.0,1.65
17289.0,1.91
17291.0,1.97
17293.0,1.97
17295.0,1.88
17297.0,1.76
17299.0,1.87
17301.0,1.86
17303.0,1.78
17305.0,1.83
17307.0,1.81
17308.0,1.87
17310.0,1.79
17312.0,1.68
17314.0,1.57
17316.0,1.6
17318.0,1.66
17320.0,1.56
17323.0,1.48
17325.0,1.6
17327.0,1.6
17329.0,1.58
17331.0,1.55
17333.0,1.46
17335.0,1.56
17337.0,1.63
17339.0,1.75
17341.0,1.74
17343.0,1.72
17345.0,1.6
17347.0,1.56
17349.0,1.65
17351.0,1.56
17352.0,1.49
17354.0,1.49
17356.0,1.62
17358.0,1.67
17360.0,1.63
17362.0,1.52
17364.0,1.55
17367.0,1.68
17369.0,1.9
17371.0,1.88
17373.0,1.89
17375.0,1.89
17377.0,1.82
17379.0,1.86
17381.0,1.75
17383.0,1.66
17385.0,1.67
17387.0,1.77
17389.0,1.82
17391.0,1.81
17393.0,1.75
17394.0,1.84
17396.0,1.8
17398.0,1.71
17400.0,1.64
17402.0,1.7
17404.0,1.71
17406.0,1.71
17409.0,1.69
17411.0,1.59
17413.0,1.43
17415.0,1.31
17417.0,1.33
17419.0,1.46
17421.0,1.44
17423.0,1.47
17425.0,1.47
17427.0,1.53
17429.0,1.56
17431.0,1.4
17433.0,1.29
17435.0,1.25
17436.0,1.28
17438.0,1.35
17440.0,1.35
17442.0,1.35
17444.0,1.32
17446.0,1.31
17448.0,1.42
17451.0,1.43
17453.0,1.47
17455.0,1.55
17457.0,1.66
17459.0,1.69
17461.0,1.78
17463.0,1.71
17465.0,1.66
17467.0,1.7
17469.0,1.75
17471.0,1.78
17473.0,1.79
17475.0,1.8
17477.0,1.89
17479.0,1.86
17480.0,1.8
17482.0,1.72
17484.0,1.75
17486.0,1.7
17488.0,1.76
17490.0,1.78
17492.0,1.84
17495.0,1.82
17497.0,1.74
17499.0,1.75
17501.0,1.73
17503.0,1.68
17505.0,1.67
17507.0,1.67
17509.0,1.65
17511.0,1.65
17513.0,1.57
17515.0,1.48
17517.0,1.52
17519.0,1.56
17521.0,1.55
17522.0,1.54
17524.0,1.5
17526.0,1.48
17528.0,1.45
17530.0,1.46
17532.0,1.45
17534.0,1.44
17537.0,1.43
17539.0,1.43
17541.0,1.42
17543.0,1.4
17545.0,1.39
17547.0,1.38
17549.0,1.37
17551.0,1.36
17553.0,1.35
17555.0,1.35
17557.0,1.36
17559.0,1.35
17561.0,1.35
17563.0,1.34
17564.0,1.34
17566.0,1.32
17568.0,1.32
17570.0,1.32
17572.0,1.33
17574.0,1.32
17576.0,1.32
17579.0,1.32
17581.0,1.34
17583.0,1.34
17585.0,1.33
17587.0,1.32
17589.0,1.32
17591.0,1.32
17593.0,1.32
17595.0,1.33
17597.0,1.33
17599.0,1.34
17601.0,1.34
17603.0,1.34
17605.0,1.34
17607.0,1.33
17608.0,1.32
17610.0,1.33
17612.0,1.34
17614.0,1.35
17616.0,1.35
17618.0,1.36
17620.0,1.36
17623.0,1.37
17625.0,1.35
17627.0,1.35
17629.0,1.34
17631.0,1.35
17633.0,1.35
17635.0,1.36
17637.0,1.37
17639.0,1.37
17641.0,1.38
17643.0,1.37
17645.0,1.37
17647.0,1.37
17649.0,1.37
17650.0,1.37
17652.0,1.22
17654.0,1.09
17656.0,1.26
17658.0,1.38
17660.0,1.43
17662.0,1.37
17665.0,1.13
17667.0,0.84
17669.0,0.85
17671.0,1.0
17673.0,1.31
17675.0,1.47
17677.0,1.54
17679.0,1.58
17681.0,1.56
17683.0,1.49
17685.0,1.44
17687.0,1.33
17689.0,1.17
17691.0,1.02
17692.0,1.18
17694.0,1.23
17696.0,1.29
17698.0,1.44
17700.0,1.4
17702.0,1.46
17704.0,1.52
17707.0,1.56
17709.0,1.53
17711.0,1.48
17713.0,1.32
17715.0,1.22
17717.0,1.08
17719.0,1.08
17721.0,1.04
17723.0,1.05
17725.0,1.14
17727.0,1.33
17729.0,1.42
17731.0,1.51
17733.0,1.56
17735.0,1.74
17736.0,1.85
17738.0,1.88
17740.0,1.85
17742.0,1.82
17744.0,1.79
17746.0,1.77
17748.0,1.74
17751.0,1.72
17753.0,1.7
17755.0,1.68
17757.0,1.68
17759.0,1.65
17761.0,1.65
17763.0,1.62
17765.0,1.61
17767.0,1.58
17769.0,1.57
17771.0,1.55
17773.0,1.56
17775.0,1.54
17777.0,1.54
17778.0,1.54
17780.0,1.55
17782.0,1.53
17784.0,1.51
17786.0,1.5
17788.0,1.5
17790.0,1.49
17793.0,1.49
17795.0,1.48
17797.0,1.49
17799.0,1.48
17801.0,1.48
17803.0,1.48
17805.0,1.47
17807.0,1.46
17809.0,1.45
17811.0,1.45
17813.0,1.46
17815.0,1.46
17817.0,1.46
17819.0,1.47
17821.0,1.46
17822.0,1.47
17824.0,1.45
17826.0,1.45
17828.0,1.44
17830.0,1.45
17832.0,1.44
17835.0,1.45
17837.0,1.45
17839.0,1.46
17841.0,1.45
17843.0,1.45
17845.0,1.45
17847.0,1.45
17849.0,1.44
17851.0,1.44
17853.0,1.44
17855.0,1.45
17857.0,1.45
17859.0,1.45
17861.0,1.46
17863.0,1.45
17864.0,1.45
17866.0,1.44
17868.0,1.44
17870.0,1.44
17872.0,1.45
17874.0,1.45
17876.0,1.45
17879.0,1.46
17881.0,1.47
17883.0,1.46
17885.0,1.45
17887.0,1.45
17889.0,1.45
17891.0,1.44
17893.0,1.45
17895.0,1.45
17897.0,1.46
17899.0,1.45
17901.0,1.46
17903.0,1.46
17905.0,1.45
17906.0,1.45
17908.0,1.44
17910.0,1.45
17912.0,1.45
17914.0,1.46
17916.0,1.46
17918.0,1.47
17921.0,1.47
17923.0,1.47
17925.0,1.45
17927.0,1.45
17929.0,1.45
17931.0,1.45
17933.0,1.45
17935.0,1.46
17937.0,1.46
17939.0,1.47
17941.0,1.47
17943.0,1.46
17945.0,1.46
17947.0,1.46
17949.0,1.45
17950.0,1.46
17952.0,1.46
17954.0,1.47
17956.0,1.47
17958.0,1.47
17960.0,1.47
17963.0,1.47
17965.0,1.46
17967.0,1.45
17969.0,1.45
17971.0,1.45
17973.0,1.46
17975.0,1.46
17977.0,1.47
17979.0,1.47
17981.0,1.48
17983.0,1.47
17985.0,1.47
17987.0,1.46
17989.0,1.46
17991.0,1.46
17992.0,1.46
17994.0,1.46
17996.0,1.48
17998.0,1.47
18000.0,1.47
18002.0,1.47
18004.0,1.47
18007.0,1.45
18009.0,1.45
18011.0,1.46
18013.0,1.47
18015.0,1.47
18017.0,1.48
18019.0,1.48
18021.0,1.48
18023.0,1.48
18025.0,1.47
18027.0,1.47
18029.0,1.46
18031.0,1.47
18033.0,1.46
18034.0,1.47
18036.0,1.47
18038.0,1.48
18040.0,1.48
18042.0,1.48
18044.0,1.47
18046.0,1.47
18049.0,1.46
18051.0,1.47
18053.0,1.47
18055.0,1.48
18057.0,1.48
18059.0,1.48
18061.0,1.48
18063.0,1.48
18065.0,1.47
18067.0,1.46
18069.0,1.46
18071.0,1.46
18073.0,1.47
18075.0,1.47
18077.0,1.48
18078.0,1.49
18080.0,1.49
18082.0,1.48
18084.0,1.48
18086.0,1.47
18088.0,1.47
18091.0,1.46
18093.0,1.47
18095.0,1.47
18097.0,1.48
18099.0,1.48
18101.0,1.48
18103.0,1.48
18105.0,1.47
18107.0,1.46
18109.0,1.46
18111.0,1.46
18113.0,1.48
18115.0,1.47
18117.0,1.48
18119.0,1.49
18120.0,1.49
18122.0,1.48
18124.0,1.47
18126.0,1.47
18128.0,1.47
18130.0,1.47
18132.0,1.46
18135.0,1.48
18137.0,1.48
18139.0,1.48
18141.0,1.48
18143.0,1.48
18145.0,1.48
18147.0,1.48
18149.0,1.47
18151.0,1.47
18153.0,1.47
18155.0,1.48
18157.0,1.48
18159.0,1.49
18161.0,1.48
18162.0,1.48
18164.0,1.47
18166.0,1.46
18168.0,1.46
18170.0,1.47
18172.0,1.47
18174.0,1.47
18177.0,1.48
18179.0,1.49
18181.0,1.49
18183.0,1.48
18185.0,1.48
18187.0,1.47
18189.0,1.47
18191.0,1.46
18193.0,1.47
18195.0,1.47
18197.0,1.49
18199.0,1.48
18201.0,1.48
18203.0,1.48
18205.0,1.47
18206.0,1.46
18208.0,1.46
18210.0,1.46
18212.0,1.48
18214.0,1.48
18216.0,1.48
18219.0,1.49
18221.0,1.49
18223.0,1.48
18225.0,1.47
18227.0,1.47
18229.0,1.46
18231.0,1.47
18233.0,1.47
18235.0,1.48
18237.0,1.48
18239.0,1.48
18241.0,1.48
18243.0,1.48
18245.0,1.48
18247.0,1.47
18248.0,1.46
18250.0,1.47
18252.0,1.48
18254.0,1.48
18256.0,1.48
18258.0,1.49
18260.0,1.48
18263.0,1.49
18265.0,1.47
18267.0,1.46
18269.0,1.46
18271.0,1.47
18273.0,1.47
18275.0,1.47
18277.0,1.48
18279.0,1.5
18281.0,1.49
18283.0,1.49
18285.0,1.48
18287.0,1.47
18289.0,1.47
18290.0,1.47
18292.0,1.47
18294.0,1.48
18296.0,1.49
18298.0,1.48
18300.0,1.48
18302.0,1.48
18305.0,1.47
18307.0,1.46
18309.0,1.46
18311.0,1.47
18313.0,1.48
18315.0,1.48
18317.0,1.48
18319.0,1.49
18321.0,1.49
18323.0,1.48
18325.0,1.47
18327.0,1.46
18329.0,1.47
18331.0,1.47
18333.0,1.47
18334.0,1.48
18336.0,1.48
18338.0,1.48
18340.0,1.48
18342.0,1.48
18344.0,1.48
18347.0,1.47
18349.0,1.47
18351.0,1.48
18353.0,1.48
18355.0,1.48
18357.0,1.48
18359.0,1.49
18361.0,1.48
18363.0,1.48
18365.0,1.47
18367.0,1.47
18369.0,1.46
18371.0,1.47
18373.0,1.47
18375.0,1.47
18376.0,1.47
18378.0,1.5
18380.0,1.49
18382.0,1.49
18384.0,1.47
18386.0,1.47
18388.0,1.47
18391.0,1.47
18393.0,1.47
18395.0,1.48
18397.0,1.48
18399.0,1.49
18401.0,1.48
18403.0,1.48
18405.0,1.48
18407.0,1.46
18409.0,1.46
18411.0,1.47
18413.0,1.48
18415.0,1.48
18417.0,1.49
18418.0,1.49
18420.0,1.49
18422.0,1.48
18424.0,1.47
18426.0,1.46
18428.0,1.47
18430.0,1.47
18433.0,1.47
18435.0,1.47
18437.0,1.48
18439.0,1.48
18441.0,1.48
18443.0,1.48
18445.0,1.48
18447.0,1.47
18449.0,1.47
18451.0,1.47
18453.0,1.48
18455.0,1.48
18457.0,1.48
18459.0,1.49
18461.0,1.48
18462.0,1.49
18464.0,1.47
18466.0,1.47
18468.0,1.46
18470.0,1.47
18472.0,1.47
18475.0,1.48
18477.0,1.48
18479.0,1.5
18481.0,1.49
18483.0,1.49
18485.0,1.47
18487.0,1.47
18489.0,1.47
18491.0,1.47
18493.0,1.47
18495.0,1.48
18497.0,1.48
18499.0,1.48
18501.0,1.48
18503.0,1.48
18504.0,1.47
18506.0,1.46
18508.0,1.47
18510.0,1.47
18512.0,1.48
18514.0,1.46
18516.0,0.92
18519.0,0.7
18521.0,0.48
18523.0,0.5
18525.0,1.1
18527.0,0.74
18529.0,0.0
18531.0,0.0
18533.0,0.0
18535.0,0.0
18537.0,0.0
18539.0,0.0
18541.0,0.0
18543.0,0.0
18545.0,0.0
18546.0,0.0
18548.0,0.0
18550.0,0.0
18552.0,0.0
18554.0,0.0
18556.0,0.0
18558.0,0.0
18561.0,0.0
18563.0,0.0
18565.0,0.0
18567.0,0.0
18569.0,0.0
18571.0,0.0
18573.0,0.0
18575.0,0.0
18577.0,0.0
18579.0,0.0
18581.0,0.0
18583.0,0.0
18585.0,0.0
18587.0,0.0
18589.0,0.0
18590.0,0.0
18592.0,0.0
18594.0,0.0
18596.0,0.0
18598.0,0.0
18600.0,0.0
18603.0,0.7
18605.0,0.65
18607.0,0.58
18609.0,0.52
18611.0,0.75
18613.0,1.34
18615.0,1.11
18617.0,0.44
18619.0,0.44
18621.0,0.46
18623.0,0.42
18625.0,0.65
18627.0,0.87
18629.0,1.67
18631.0,1.92
18632.0,1.59
18634.0,1.43
18636.0,1.34
18638.0,1.56
18640.0,1.5
18642.0,1.27
18644.0,1.15
18647.0,1.51
18649.0,1.95
18651.0,2.18
18653.0,2.9
18655.0,2.31
18657.0,1.85
18659.0,1.76
18661.0,1.82
18663.0,1.73
18665.0,1.45
18667.0,1.41
18669.0,1.59
18671.0,1.62
18673.0,1.88
18674.0,1.96
18676.0,2.06
18678.0,2.96
18680.0,2.63
18682.0,2.42
18684.0,2.3
18686.0,2.21
18689.0,2.14
18691.0,1.92
18693.0,1.95
18695.0,2.07
18697.0,2.08
18699.0,2.06
18701.0,2.01
18703.0,2.11
18705.0,3.08
18707.0,2.91
18709.0,2.68
18711.0,2.69
18713.0,2.57
18715.0,2.66
18717.0,2.75
18718.0,2.88
18720.0,3.02
18722.0,2.92
18724.0,2.88
18726.0,2.88
18728.0,3.04
18731.0,3.23
18733.0,3.3
18735.0,3.3
18737.0,3.3
18739.0,3.3
18741.0,3.3
18743.0,3.3
18745.0,3.3
18747.0,3.3
18749.0,3.3
18751.0,3.3
18753.0,3.3
18755.0,3.3
18757.0,3.3
18759.0,3.3
18760.0,3.3
18762.0,3.3
18764.0,3.3
18766.0,3.3
18768.0,3.3
18770.0,3.3
18772.0,3.3
18775.0,3.3
18777.0,3.3
18779.0,3.3
18781.0,3.3
18783.0,3.3
18785.0,3.3
18787.0,3.3
18789.0,3.3
18791.0,3.3
18793.0,3.3
18795.0,3.3
18797.0,3.3
18799.0,3.3
18801.0,3.3
18803.0,3.3
18804.0,3.3
18806.0,3.3
18808.0,3.3
18810.0,3.3
18812.0,3.3
18814.0,3.3
18817.0,3.3
18819.0,3.3
18821.0,3.3
18823.0,3.3
18825.0,3.3
18827.0,3.3
18829.0,3.3
18831.0,3.3
18833.0,3.3
18835.0,3.3
18837.0,3.3
18839.0,3.3
18841.0,3.3
18843.0,3.3
18845.0,3.3
18846.0,3.15
18848.0,2.94
18850.0,2.74
18852.0,2.56
18854.0,2.37
18856.0,2.22
18859.0,2.06
18861.0,1.93
18863.0,1.79
18865.0,1.65
18867.0,1.54
18869.0,1.44
18871.0,1.35
18873.0,1.26
18875.0,1.19
18877.0,1.13
18879.0,1.06
18881.0,1.0
18883.0,0.94
18885.0,0.88
18887.0,0.83
18888.0,0.78
18890.0,0.75
18892.0,0.72
18894.0,0.7
18896.0,0.67
18898.0,0.65
18900.0,0.63
18903.0,0.61
18905.0,0.58
18907.0,0.56
18909.0,0.55
18911.0,0.56
18913.0,0.55
18915.0,0.55
18917.0,0.55
18919.0,0.55
18921.0,0.55
18923.0,0.54
18925.0,0.54
18927.0,0.53
18929.0,0.54
18931.0,0.54
18932.0,0.55
18934.0,0.56
18936.0,0.57
18938.0,0.58
18940.0,0.59
18942.0,0.6
18945.0,0.6
18947.0,0.6
18949.0,0.62
18951.0,0.63
18953.0,0.65
18955.0,0.65
18957.0,0.67
18959.0,0.68
18961.0,0.69
18963.0,0.7
18965.0,0.7
18967.0,0.7
18969.0,0.72
18971.0,0.73
18973.0,0.75
18974.0,0.76
18976.0,0.79
18978.0,0.8
18980.0,0.81
18982.0,0.81
18984.0,0.82
18987.0,0.82
18989.0,0.83
18991.0,0.85
18993.0,0.86
18995.0,0.88
18997.0,0.89
18999.0,0.9
19001.0,0.91
19003.0,0.92
19005.0,0.91
19007.0,0.92
19009.0,0.94
19011.0,0.96
19013.0,0.97
19015.0,0.98
19016.0,0.99
19018.0,1.01
19020.0,1.01
19022.0,1.01
19024.0,1.02
19026.0,1.02
19028.0,1.03
19031.0,1.04
19033.0,1.05
19035.0,1.07
19037.0,1.08
19039.0,1.09
19041.0,1.09
19043.0,1.1
19045.0,1.1
19047.0,1.1
19049.0,1.12
19051.0,1.13
19053.0,1.14
19055.0,1.14
19057.0,1.15
19059.0,1.16
19060.0,1.17
19062.0,1.16
19064.0,1.16
19066.0,1.17
19068.0,1.18
19070.0,1.18
19073.0,1.19
19075.0,1.2
19077.0,1.23
19079.0,1.23
19081.0,1.23
19083.0,1.23
19085.0,1.23
19087.0,1.23
19089.0,1.23
19091.0,1.24
19093.0,1.25
19095.0,1.26
19097.0,1.26
19099.0,1.27
19101.0,1.27
19102.0,1.27
19104.0,1.26
19106.0,1.27
19108.0,1.27
19110.0,1.29
19112.0,1.29
19115.0,1.31
19117.0,1.31
19119.0,1.32
19121.0,1.31
19123.0,1.31
19125.0,1.31
19127.0,1.31
19129.0,1.31
19131.0,1.32
19133.0,1.33
19135.0,1.34
19137.0,1.34
19139.0,1.35
19141.0,1.35
19143.0,1.35
19144.0,1.35
19146.0,1.34
19148.0,1.35
19150.0,1.35
19152.0,1.36
19154.0,1.36
19156.0,1.37
19159.0,1.38
19161.0,1.38
19163.0,1.36
19165.0,1.36
19167.0,1.36
19169.0,1.37
19171.0,1.37
19173.0,1.38
19175.0,1.38
19177.0,1.4
19179.0,1.4
19181.0,1.39
19183.0,1.39
19185.0,1.39
19187.0,1.38
19188.0,1.38
19190.0,1.39
19192.0,1.4
19194.0,1.41
19196.0,1.41
19198.0,1.41
19201.0,1.41
19203.0,1.41
19205.0,1.4
19207.0,1.4
19209.0,1.41
19211.0,1.42
19213.0,1.42
19215.0,1.42
19217.0,1.43
19219.0,1.43
19221.0,1.42
19223.0,1.42
19225.0,1.41
19227.0,1.42
19229.0,1.41
19230.0,1.41
19232.0,1.42
19234.0,1.43
19236.0,1.43
19238.0,1.44
19240.0,1.43
19243.0,1.44
19245.0,1.43
19247.0,1.43
19249.0,1.43
19251.0,1.43
19253.0,1.44
19255.0,1.44
19257.0,1.45
19259.0,1.45
19261.0,1.45
19263.0,1.44
19265.0,1.43
19267.0,1.43
19269.0,1.44
19271.0,1.43
19272.0,1.44
19274.0,1.45
19276.0,1.46
19278.0,1.46
19280.0,1.45
19282.0,1.45
19284.0,1.45
19287.0,1.44
19289.0,1.44
19291.0,1.44
19293.0,1.45
19295.0,1.45
19297.0,1.45
19299.0,1.46
19301.0,1.46
19303.0,1.45
19305.0,1.44
19307.0,1.44
19309.0,1.45
19311.0,1.46
19313.0,1.45
19315.0,1.46
19316.0,1.47
19318.0,1.47
19320.0,1.46
19322.0,1.46
19324.0,1.45
19326.0,1.45
19329.0,1.45
19331.0,1.45
19333.0,1.46
19335.0,1.46
19337.0,1.46
19339.0,1.47
19341.0,1.46
19343.0,1.47
19345.0,1.45
19347.0,1.46
19349.0,1.46
19351.0,1.46
19353.0,1.46
19355.0,1.47
19357.0,1.47
19358.0,1.47
19360.0,1.47
19362.0,1.46
19364.0,1.45
19366.0,1.45
19368.0,1.45
19371.0,1.45
19373.0,1.46
19375.0,1.47
19377.0,1.48
19379.0,1.47
19381.0,1.47
19383.0,1.46
19385.0,1.46
19387.0,1.46
19389.0,1.46
19391.0,1.46
19393.0,1.47
19395.0,1.47
19397.0,1.47
19399.0,1.47
19400.0,1.47
19402.0,1.46
19404.0,1.45
19406.0,1.45
19408.0,1.47
19410.0,1.47
19412.0,1.47
19415.0,1.48
19417.0,1.48
19419.0,1.48
19421.0,1.47
19423.0,1.47
19425.0,1.46
19427.0,1.46
19429.0,1.46
19431.0,1.46
19433.0,1.47
19435.0,1.48
19437.0,1.47
19439.0,1.48
19441.0,1.47
19443.0,1.48
19444.0,1.46
19446.0,1.46
19448.0,1.46
19450.0,1.47
19452.0,1.47
19454.0,1.48
19457.0,1.48
19459.0,1.49
19461.0,1.48
19463.0,1.46
19465.0,1.46
19467.0,1.46
19469.0,1.47
19471.0,1.46
19473.0,1.47
19475.0,1.48
19477.0,1.49
19479.0,1.49
19481.0,1.48
19483.0,1.47
19485.0,1.47
19486.0,1.46
19488.0,1.47
19490.0,1.46
19492.0,1.48
19494.0,1.47
19496.0,1.48
19499.0,1.48
19501.0,1.48
