time,ch3
1.45,1.62
3.45,1.62
5.45,1.45
7.45,1.55
9.45,1.54
11.45,1.53
13.45,1.53
15.45,1.47
17.45,1.57
19.45,1.62
21.45,1.65
23.45,1.6
25.45,1.41
27.45,1.46
29.45,1.52
31.45,1.47
33.45,1.53
35.45,1.48
37.45,1.54
39.45,1.55
42.45,1.56
44.45,1.51
46.45,1.41
47.45,1.47
49.45,1.51
51.45,1.51
53.45,1.98
55.45,3.3
57.45,3.3
59.45,3.3
61.45,3.3
63.45,3.3
65.45,3.3
67.45,3.3
69.45,3.19
71.45,3.01
73.45,2.89
75.45,2.76
77.45,2.75
79.45,2.54
81.45,0.65
84.45,0.0
86.45,0.0
88.45,0.0
90.45,0.0
92.45,0.0
94.45,0.0
95.45,0.0
97.45,0.0
99.45,0.0
101.45,0.0
103.45,0.0
105.45,0.01
107.45,0.16
109.45,0.32
111.45,0.4
113.45,0.51
115.45,0.56
117.45,0.66
119.45,0.74
121.45,0.82
123.45,0.86
126.45,0.75
128.45,0.93
130.45,0.95
132.45,1.02
134.45,1.07
136.45,1.08
138.45,1.22
139.45,1.23
141.45,1.25
143.45,1.33
145.45,1.25
147.45,1.3
149.45,1.33
151.45,1.4
153.45,1.46
155.45,1.37
157.45,1.42
159.45,1.45
161.45,1.46
163.45,1.55
165.45,1.44
167.45,1.47
170.45,1.55
172.45,1.66
174.45,1.59
176.45,1.54
178.45,1.58
180.45,1.54
181.45,1.59
183.45,1.64
185.45,1.52
187.45,1.58
189.45,1.52
191.45,1.52
193.45,1.65
195.45,1.68
197.45,1.77
199.45,1.76
201.45,1.73
203.45,1.71
205.45,1.54
207.45,1.56
209.45,1.53
212.45,1.55
214.45,1.58
216.45,1.48
218.45,1.51
220.45,1.58
222.45,1.55
223.45,1.46
225.45,1.39
227.45,1.51
229.45,1.53
231.45,1.5
233.45,1.49
235.45,1.53
237.45,1.72
239.45,1.74
241.45,1.64
243.45,1.68
245.45,1.54
247.45,1.61
249.45,1.6
251.45,1.59
254.45,1.6
256.45,1.54
258.45,1.6
260.45,1.7
262.45,1.95
264.45,1.92
266.45,1.79
267.45,1.9
269.45,1.88
271.45,1.83
273.45,1.83
275.45,1.76
277.45,1.78
279.45,1.76
281.45,1.72
283.45,1.65
285.45,1.5
287.45,1.54
289.45,1.58
291.45,1.58
293.45,1.63
295.45,1.57
298.45,1.62
300.45,1.66
302.45,1.73
304.45,1.68
306.45,1.53
308.45,1.54
309.45,1.47
311.45,1.52
313.45,1.5
315.45,1.42
317.45,1.46
319.45,1.47
321.45,1.46
323.45,1.41
325.45,1.33
327.45,1.4
329.45,1.42
331.45,1.45
333.45,1.44
335.45,1.36
337.45,1.46
340.45,1.46
342.45,1.49
344.45,1.51
346.45,1.37
348.45,1.45
350.45,1.47
351.45,1.45
353.45,1.46
355.45,1.35
357.45,1.44
359.45,1.45
361.45,1.4
363.45,1.38
365.45,1.25
367.45,1.35
369.45,1.35
371.45,1.35
373.45,1.41
375.45,1.37
377.45,1.46
379.45,1.46
382.45,1.52
384.45,1.4
386.45,1.3
388.45,1.31
390.45,1.32
392.45,1.36
394.45,1.35
395.45,1.31
397.45,1.42
399.45,1.41
401.45,1.37
403.45,1.38
405.45,1.31
407.45,1.32
409.45,1.33
411.45,1.33
413.45,1.4
415.45,1.36
417.45,1.46
419.45,1.46
421.45,1.46
423.45,1.45
426.45,1.4
428.45,1.45
430.45,1.52
432.45,1.5
434.45,1.52
436.45,1.49
437.45,1.5
439.45,1.5
441.45,1.51
443.45,1.47
445.45,1.37
447.45,1.49
449.45,1.56
451.45,1.59
453.45,1.61
455.45,1.56
457.45,1.64
459.45,1.72
461.45,1.65
463.45,1.62
465.45,1.52
468.45,1.59
470.45,1.6
472.45,1.58
474.45,1.58
476.45,1.6
478.45,1.71
479.45,1.77
481.45,1.73
483.45,1.69
485.45,1.59
487.45,1.63
489.45,1.59
491.45,1.6
493.45,1.6
495.45,1.64
497.45,1.73
499.45,1.69
501.45,1.72
503.45,1.71
505.45,1.55
507.45,1.59
510.45,1.62
512.45,1.62
514.45,1.62
516.45,1.55
518.45,1.59
520.45,1.66
522.45,1.65
523.45,1.67
525.45,1.56
527.45,1.61
529.45,1.56
531.45,1.56
533.45,1.64
535.45,1.59
537.45,1.63
539.45,1.6
541.45,1.54
543.45,1.51
545.45,1.38
547.45,1.45
549.45,1.39
551.45,1.42
554.45,1.4
556.45,1.33
558.45,1.43
560.45,1.2
562.45,0.87
564.45,0.85
565.45,0.71
567.45,0.76
569.45,0.8
571.45,0.77
573.45,0.75
575.45,0.67
577.45,0.76
579.45,0.75
581.45,0.74
583.45,0.76
585.45,0.73
587.45,0.85
589.45,0.89
591.45,0.93
593.45,1.0
596.45,1.0
598.45,1.11
600.45,1.13
602.45,1.27
604.45,1.29
606.45,1.23
608.45,1.34
609.45,1.42
611.45,1.53
613.45,1.65
615.45,1.7
617.45,1.86
619.45,1.97
621.45,1.93
623.45,1.91
625.45,1.85
627.45,2.02
629.45,2.06
631.45,2.14
633.45,2.13
635.45,2.15
638.45,2.34
640.45,2.31
642.45,2.29
644.45,2.3
646.45,2.23
648.45,2.34
650.45,2.39
651.45,2.35
653.45,2.36
655.45,2.27
657.45,2.28
659.45,2.32
661.45,2.34
663.45,2.32
665.45,2.15
667.45,2.1
669.45,2.05
671.45,2.02
673.45,1.97
675.45,1.96
677.45,1.97
679.45,2.03
682.45,1.95
684.45,1.89
686.45,1.78
688.45,1.86
690.45,1.83
692.45,1.77
693.45,1.84
695.45,1.72
697.45,1.72
699.45,1.73
701.45,1.64
703.45,1.61
705.45,1.49
707.45,1.53
709.45,1.58
711.45,1.59
713.45,1.56
715.45,1.54
717.45,1.58
719.45,1.6
721.45,1.52
724.45,1.42
726.45,1.25
728.45,1.23
730.45,1.2
732.45,1.26
734.45,1.26
736.45,1.26
737.45,1.36
739.45,1.28
741.45,1.32
743.45,1.31
745.45,1.22
747.45,1.31
749.45,1.33
751.45,1.29
753.45,1.39
755.45,1.28
757.45,1.39
759.45,1.39
761.45,1.41
763.45,1.3
766.45,1.26
768.45,1.36
770.45,1.34
772.45,1.28
774.45,1.35
776.45,1.25
778.45,1.32
779.45,1.36
781.45,1.31
783.45,1.27
785.45,1.15
787.45,1.23
789.45,1.21
791.45,1.25
793.45,1.32
795.45,1.24
797.45,1.37
799.45,2.51
801.45,3.3
803.45,3.3
805.45,3.3
807.45,3.3
810.45,3.3
812.45,3.3
814.45,3.3
816.45,3.3
818.45,3.3
820.45,3.3
821.45,3.23
823.45,3.05
825.45,2.66
827.45,2.43
829.45,2.19
831.45,1.99
833.45,1.92
835.45,1.69
837.45,1.62
839.45,0.0
841.45,0.0
843.45,0.0
845.45,0.0
847.45,0.0
849.45,0.0
852.45,0.0
854.45,0.0
856.45,0.0
858.45,0.0
860.45,0.0
862.45,0.0
864.45,0.0
865.45,0.0
867.45,0.0
869.45,0.0
871.45,0.0
873.45,0.0
875.45,0.0
877.45,0.14
879.45,0.19
881.45,0.27
883.45,0.39
885.45,0.33
887.45,0.43
889.45,0.51
891.45,0.59
894.45,0.71
896.45,0.79
898.45,0.9
900.45,0.89
902.45,0.95
904.45,0.96
906.45,0.95
907.45,1.05
909.45,1.11
911.45,1.15
913.45,1.21
915.45,1.21
917.45,1.28
919.45,1.3
921.45,1.27
923.45,1.2
925.45,1.18
927.45,1.28
929.45,1.26
931.45,1.28
933.45,1.32
935.45,1.29
938.45,1.39
940.45,1.34
942.45,1.32
944.45,1.32
946.45,1.28
948.45,1.36
949.45,1.48
951.45,1.5
953.45,1.51
955.45,1.46
957.45,1.55
959.45,1.54
961.45,1.52
963.45,1.52
965.45,1.42
967.45,1.43
969.45,1.43
971.45,1.39
973.45,1.35
975.45,1.31
977.45,1.46
980.45,1.49
982.45,1.51
984.45,1.43
986.45,1.36
988.45,1.37
990.45,1.39
992.45,1.43
993.45,1.47
995.45,1.43
997.45,1.54
999.45,1.58
1001.45,1.57
1003.45,1.54
1005.45,1.46
1007.45,1.55
1009.45,1.52
1011.45,1.61
1013.45,1.61
1015.45,1.54
1017.45,1.67
1019.45,1.65
1022.45,1.57
1024.45,1.46
1026.45,1.41
1028.45,1.46
1030.45,1.47
1032.45,1.52
1034.45,1.46
1035.45,1.44
1037.45,1.5
1039.45,1.54
1041.45,1.52
1043.45,1.55
1045.45,1.47
1047.45,1.55
1049.45,1.56
1051.45,1.55
1053.45,1.57
1055.45,1.59
1057.45,1.67
1059.45,1.65
1061.45,1.63
1063.45,1.66
1066.45,1.57
1068.45,1.61
1070.45,1.61
1072.45,1.54
1074.45,1.57
1076.45,1.51
1078.45,1.51
1079.45,1.48
1081.45,1.5
1083.45,1.52
1085.45,1.4
1087.45,1.45
1089.45,1.35
1091.45,1.39
1093.45,1.41
1095.45,1.42
1097.45,1.55
1099.45,1.54
1101.45,1.45
1103.45,1.4
1105.45,1.34
1108.45,1.42
1110.45,1.49
1112.45,1.5
1114.45,1.55
1116.45,1.47
1118.45,1.56
1120.45,1.61
1121.45,1.6
1123.45,1.56
1125.45,1.6
1127.45,1.67
1129.45,1.7
1131.45,1.66
1133.45,1.69
1135.45,1.64
1137.45,1.77
1139.45,1.77
1141.45,1.79
1143.45,1.82
1145.45,1.76
1147.45,1.94
1150.45,2.13
1152.45,2.26
1154.45,2.39
1156.45,2.36
1158.45,2.39
1160.45,2.39
1162.45,2.45
1164.45,2.43
1165.45,2.3
1167.45,2.35
1169.45,2.31
1171.45,2.29
1173.45,2.38
1175.45,2.36
1177.45,2.45
1179.45,2.43
1181.45,2.37
1183.45,2.25
1185.45,2.28
1187.45,2.36
1189.45,2.3
1191.45,2.32
1194.45,2.32
1196.45,2.3
1198.45,2.35
1200.45,2.3
1202.45,2.3
1204.45,2.27
1206.45,2.33
1207.45,2.22
1209.45,2.11
1211.45,2.16
1213.45,2.14
1215.45,2.13
1217.45,2.21
1219.45,2.17
1221.45,2.11
1223.45,2.01
1225.45,1.96
1227.45,1.97
1229.45,1.84
1231.45,1.76
1233.45,1.73
1236.45,1.66
1238.45,1.69
1240.45,1.61
1242.45,1.6
1244.45,1.48
1246.45,1.41
1248.45,1.45
1250.45,1.45
1251.45,1.57
1253.45,1.56
1255.45,1.49
1257.45,1.54
1259.45,1.5
1261.45,1.45
1263.45,1.41
1265.45,1.39
1267.45,1.45
1269.45,1.41
1271.45,1.4
1273.45,1.45
1275.45,1.38
1278.45,1.45
1280.45,1.37
1282.45,1.29
1284.45,1.32
1286.45,1.21
1288.45,1.2
1290.45,1.22
1292.45,1.23
1293.45,1.23
1295.45,1.21
1297.45,1.29
1299.45,1.24
1301.45,1.25
1303.45,1.19
1305.45,1.12
1307.45,1.18
1309.45,1.09
1311.45,1.08
1313.45,1.18
1315.45,1.17
1317.45,1.3
1319.45,1.24
1322.45,1.26
1324.45,1.15
1326.45,1.02
1328.45,1.04
1330.45,1.04
1332.45,1.05
1334.45,1.11
1336.45,1.03
1337.45,1.15
1339.45,1.11
1341.45,1.12
1343.45,1.07
1345.45,1.07
1347.45,1.14
1349.45,1.09
1351.45,1.14
1353.45,1.08
1355.45,1.09
1357.45,1.17
1359.45,1.14
1361.45,1.09
1364.45,3.3
1366.45,3.3
1368.45,3.3
1370.45,3.3
1372.45,3.3
1374.45,3.3
1376.45,3.3
1378.45,3.3
1379.45,3.24
1381.45,3.09
1383.45,2.87
1385.45,2.55
1387.45,2.33
1389.45,2.07
1391.45,1.89
1393.45,1.78
1395.45,1.67
1397.45,1.62
1399.45,1.52
1401.45,1.42
1403.45,1.25
1406.45,1.08
1408.45,1.05
1410.45,0.97
1412.45,0.95
1414.45,0.92
1416.45,0.8
1418.45,0.76
1420.45,0.66
1422.45,0.57
1423.45,0.5
1425.45,0.48
1427.45,0.19
1429.45,0.0
1431.45,0.0
1433.45,0.0
1435.45,0.0
1437.45,0.0
1439.45,0.0
1441.45,0.0
1443.45,0.0
1445.45,0.0
1447.45,0.0
1450.45,0.0
1452.45,0.0
1454.45,0.0
1456.45,0.0
1458.45,0.0
1460.45,0.0
1462.45,0.0
1464.45,0.0
1465.45,0.02
1467.45,0.17
1469.45,0.25
1471.45,0.29
1473.45,0.41
1475.45,0.51
1477.45,0.68
1479.45,0.72
1481.45,0.73
1483.45,0.76
1485.45,0.81
1487.45,0.89
1489.45,0.94
1492.45,1.05
1494.45,1.16
1496.45,1.16
1498.45,1.25
1500.45,1.22
1502.45,1.22
1504.45,1.19
1506.45,1.2
1508.45,1.2
1509.45,1.26
1511.45,1.27
1513.45,1.33
1515.45,1.35
1517.45,1.4
1519.45,1.39
1521.45,1.41
1523.45,1.3
1525.45,1.25
1527.45,1.3
1529.45,1.28
1531.45,1.25
1534.45,1.29
1536.45,1.3
1538.45,1.39
1540.45,1.43
1542.45,1.39
1544.45,1.38
1546.45,1.33
1548.45,1.38
1550.45,1.39
1551.45,1.45
1553.45,1.47
1555.45,1.42
1557.45,1.45
1559.45,1.43
1561.45,1.45
1563.45,1.37
1565.45,1.35
1567.45,1.32
1569.45,1.31
1571.45,1.48
1573.45,1.51
1575.45,1.55
1578.45,1.65
1580.45,1.65
1582.45,1.6
1584.45,1.55
1586.45,1.48
1588.45,1.5
1590.45,1.52
1592.45,1.56
1594.45,1.57
1595.45,1.56
1597.45,1.6
1599.45,1.56
1601.45,1.52
1603.45,1.45
1605.45,1.41
1607.45,1.49
1609.45,1.54
1611.45,1.52
1613.45,1.55
1615.45,1.52
1617.45,1.6
1620.45,1.64
1622.45,1.61
1624.45,1.54
1626.45,1.54
1628.45,1.6
1630.45,1.6
1632.45,1.58
1634.45,1.54
1636.45,1.52
1637.45,1.53
1639.45,1.56
1641.45,1.59
1643.45,1.51
1645.45,1.51
1647.45,1.55
1649.45,1.5
1651.45,1.59
1653.45,1.57
1655.45,1.54
1657.45,1.6
1659.45,1.63
1662.45,1.63
1664.45,1.59
1666.45,1.55
1668.45,1.57
1670.45,1.63
1672.45,1.56
1674.45,1.56
1676.45,1.6
1678.45,1.71
1680.45,1.68
1681.45,1.66
1683.45,1.55
1685.45,1.51
1687.45,1.53
1689.45,1.57
1691.45,1.61
1693.45,1.65
1695.45,1.65
1697.45,1.65
1699.45,1.67
1701.45,1.65
1703.45,1.54
1706.45,1.54
1708.45,1.61
1710.45,1.62
1712.45,1.62
1714.45,1.62
1716.45,1.69
1718.45,1.75
1720.45,1.71
1722.45,1.68
1723.45,1.61
1725.45,1.62
1727.45,1.6
1729.45,1.57
1731.45,1.64
1733.45,1.62
1735.45,1.55
1737.45,1.61
1739.45,1.55
1741.45,1.47
1743.45,1.41
1745.45,1.43
1748.45,1.42
1750.45,1.49
1752.45,1.54
1754.45,1.46
1756.45,1.48
1758.45,1.55
1760.45,1.54
1762.45,1.48
1764.45,1.48
1766.45,1.42
1767.45,1.42
1769.45,1.52
1771.45,1.51
1773.45,1.54
1775.45,1.59
1777.45,1.59
1779.45,1.64
1781.45,1.55
1783.45,1.44
1785.45,1.46
1787.45,1.44
1790.45,1.44
1792.45,1.48
1794.45,1.55
1796.45,1.59
1798.45,1.67
1800.45,1.6
1802.45,1.58
1804.45,1.4
1806.45,1.37
1808.45,1.37
1809.45,1.38
1811.45,1.41
1813.45,1.41
1815.45,1.4
1817.45,1.46
1819.45,1.52
1821.45,1.48
1823.45,1.39
1825.45,1.35
1827.45,1.39
1829.45,1.53
1831.45,1.59
1834.45,1.64
1836.45,1.67
1838.45,1.69
1840.45,1.61
1842.45,1.68
1844.45,1.58
1846.45,1.57
1848.45,1.65
1850.45,1.62
1852.45,1.66
1853.45,1.71
1855.45,1.76
1857.45,3.3
1859.45,3.3
1861.45,3.3
1863.45,3.3
1865.45,3.3
1867.45,3.3
1869.45,3.3
1871.45,3.3
1873.45,3.3
1876.45,3.3
1878.45,3.3
1880.45,3.3
1882.45,3.3
1884.45,3.3
1886.45,3.3
1888.45,3.3
1890.45,3.3
1892.45,3.26
1894.45,3.15
1895.45,3.04
1897.45,3.02
1899.45,2.84
1901.45,2.7
1903.45,2.5
1905.45,2.45
1907.45,2.36
1909.45,2.31
1911.45,2.3
1913.45,2.23
1915.45,2.18
1918.45,2.19
1920.45,2.07
1922.45,1.98
1924.45,1.81
1926.45,1.73
1928.45,1.72
1930.45,1.64
1932.45,1.56
1934.45,1.48
1936.45,1.49
1938.45,1.57
1939.45,1.55
1941.45,1.53
1943.45,1.39
1945.45,1.32
1947.45,1.33
1949.45,1.31
1951.45,1.28
1953.45,1.21
1955.45,1.16
1957.45,1.14
1959.45,1.18
1962.45,1.16
1964.45,1.03
1966.45,1.02
1968.45,0.99
1970.45,0.95
1972.45,0.96
1974.45,0.9
1976.45,0.91
1978.45,1.07
1980.45,1.03
1981.45,0.93
1983.45,0.87
1985.45,0.85
1987.45,0.83
1989.45,0.86
1991.45,0.85
1993.45,0.82
1995.45,0.86
1997.45,0.95
1999.45,0.95
2001.45,0.9
2004.45,0.79
2006.45,0.79
2008.45,0.79
2010.45,0.77
2012.45,0.75
2014.45,0.86
2016.45,0.94
2018.45,0.99
2020.45,0.89
2022.45,0.89
2024.45,0.8
2025.45,0.8
2027.45,0.85
2029.45,0.84
2031.45,0.86
2033.45,0.91
2035.45,0.9
2037.45,1.02
2039.45,1.02
2041.45,0.96
2043.45,0.85
2046.45,0.86
2048.45,0.88
2050.45,0.95
2052.45,0.96
2054.45,0.98
2056.45,1.03
2058.45,1.08
2060.45,0.96
2062.45,0.9
2064.45,0.91
2066.45,0.95
2067.45,0.99
2069.45,0.98
2071.45,0.97
2073.45,0.98
2075.45,1.04
2077.45,1.08
2079.45,1.01
2081.45,1.0
2083.45,0.92
2085.45,0.92
2087.45,0.95
2090.45,0.99
2092.45,1.02
2094.45,0.96
2096.45,1.01
2098.45,1.1
2100.45,1.02
2102.45,1.02
2104.45,0.97
2106.45,1.0
2108.45,1.08
2110.45,1.06
2111.45,1.06
2113.45,1.06
2115.45,1.1
2117.45,1.13
2119.45,1.1
2121.45,1.07
2123.45,1.04
2125.45,1.01
2127.45,1.04
2129.45,0.99
2132.45,1.02
2134.45,1.07
2136.45,1.09
2138.45,1.13
2140.45,1.16
2142.45,1.13
2144.45,1.01
2146.45,0.94
2148.45,0.97
2150.45,1.0
2152.45,1.01
2153.45,1.01
2155.45,1.08
2157.45,1.18
2159.45,1.18
2161.45,1.2
2163.45,1.14
2165.45,1.13
2167.45,1.15
2169.45,1.17
2171.45,1.18
2174.45,1.18
2176.45,1.28
2178.45,1.28
2180.45,1.29
2182.45,1.34
2184.45,1.24
2186.45,1.25
2188.45,1.24
2190.45,1.22
2192.45,1.21
2194.45,1.2
2196.45,1.26
2197.45,1.31
2199.45,1.27
2201.45,1.29
2203.45,1.17
2205.45,1.25
2207.45,1.32
2209.45,1.32
2211.45,1.24
2213.45,1.22
2215.45,1.25
2218.45,1.29
2220.45,1.32
2222.45,1.4
2224.45,1.34
2226.45,1.37
2228.45,1.46
2230.45,1.51
2232.45,1.6
2234.45,1.54
2236.45,1.53
2238.45,1.52
2239.45,1.51
2241.45,1.53
2243.45,1.52
2245.45,1.51
2247.45,1.53
2249.45,1.55
2251.45,1.6
2253.45,1.58
2255.45,1.56
2257.45,1.57
2260.45,1.55
2262.45,1.55
2264.45,1.55
2266.45,1.6
2268.45,1.63
2270.45,1.61
2272.45,1.63
2274.45,1.6
2276.45,1.64
2278.45,1.65
2280.45,1.68
2282.45,1.62
2283.45,1.51
2285.45,1.53
2287.45,1.56
2289.45,1.57
2291.45,1.68
2293.45,1.61
2295.45,1.64
2297.45,1.71
2299.45,1.61
2302.45,1.56
2304.45,1.45
2306.45,1.4
2308.45,1.38
2310.45,1.35
2312.45,1.43
2314.45,1.4
2316.45,1.44
2318.45,1.55
2320.45,1.53
2322.45,1.52
2324.45,1.39
2325.45,1.44
2327.45,1.51
2329.45,1.56
2331.45,1.55
2333.45,1.51
2335.45,1.56
2337.45,1.59
2339.45,1.6
2341.45,1.63
2343.45,1.53
2346.45,1.64
2348.45,1.7
2350.45,1.69
2352.45,1.79
2354.45,1.78
2356.45,1.83
2358.45,1.92
2360.45,1.83
2362.45,1.83
2364.45,1.74
2366.45,1.74
2368.45,1.72
2369.45,1.67
2371.45,1.66
2373.45,1.6
2375.45,1.65
2377.45,1.69
2379.45,1.67
2381.45,1.63
2383.45,1.54
2385.45,1.55
2388.45,1.54
2390.45,1.63
2392.45,1.64
2394.45,1.6
2396.45,1.58
2398.45,1.56
2400.45,1.52
2402.45,1.51
2404.45,1.46
2406.45,1.52
2408.45,1.53
2410.45,1.54
2411.45,1.55
2413.45,1.57
2415.45,1.6
2417.45,1.6
2419.45,1.55
2421.45,1.51
2423.45,1.4
2425.45,1.48
2427.45,1.52
2430.45,1.61
2432.45,1.65
2434.45,1.59
2436.45,1.54
2438.45,1.56
2440.45,1.6
2442.45,1.55
2444.45,1.47
2446.45,1.57
2448.45,1.54
2450.45,1.64
2452.45,1.68
2454.45,1.59
2455.45,1.6
2457.45,1.68
2459.45,1.65
2461.45,1.6
2463.45,1.48
2465.45,1.52
2467.45,1.51
2469.45,1.44
2471.45,1.49
2474.45,1.5
2476.45,1.59
2478.45,1.57
2480.45,1.54
2482.45,1.53
2484.45,1.41
2486.45,1.39
2488.45,1.41
2490.45,1.38
2492.45,1.36
2494.45,1.33
2496.45,1.43
2497.45,1.45
2499.45,1.5
2501.45,1.45
2503.45,1.33
2505.45,1.41
2507.45,1.5
2509.45,1.46
2511.45,1.4
2513.45,1.37
2516.45,1.38
2518.45,1.45
2520.45,1.4
2522.45,1.34
2524.45,1.27
2526.45,1.3
2528.45,1.32
2530.45,1.37
2532.45,1.43
2534.45,1.43
2536.45,1.48
2538.45,1.47
2540.45,1.43
2541.45,1.46
2543.45,1.38
2545.45,1.45
2547.45,1.46
2549.45,1.52
2551.45,1.54
2553.45,1.53
2555.45,1.55
2558.45,1.59
2560.45,1.5
2562.45,1.55
2564.45,1.43
2566.45,1.44
2568.45,1.46
2570.45,1.49
2572.45,1.45
2574.45,1.4
2576.45,1.45
2578.45,1.48
2580.45,1.48
2582.45,1.53
2584.45,1.38
2585.45,1.42
2587.45,1.53
2589.45,1.48
2591.45,1.53
2593.45,1.5
2595.45,1.56
2597.45,1.62
2599.45,1.57
2602.45,1.45
2604.45,1.29
2606.45,1.32
2608.45,1.34
2610.45,1.34
2612.45,1.4
2614.45,1.39
2616.45,1.45
2618.45,1.48
2620.45,1.42
2622.45,1.48
2624.45,1.31
2626.45,1.3
2627.45,1.35
2629.45,1.41
2631.45,1.43
2633.45,1.37
2635.45,1.44
2637.45,1.47
2639.45,1.45
2641.45,1.45
2644.45,1.34
2646.45,1.35
2648.45,1.41
2650.45,1.37
2652.45,1.38
2654.45,1.35
2656.45,1.39
2658.45,1.37
2660.45,1.41
2662.45,1.42
2664.45,0.77
2666.45,0.72
2668.45,0.87
2669.45,0.99
2671.45,1.1
2673.45,1.09
2675.45,1.16
2677.45,1.25
2679.45,1.37
2681.45,1.35
2683.45,1.28
2686.45,1.38
2688.45,1.42
2690.45,1.38
2692.45,1.48
2694.45,1.47
2696.45,1.56
2698.45,1.65
2700.45,1.53
2702.45,1.41
2704.45,1.32
2706.45,1.4
2708.45,1.42
2710.45,1.49
2712.45,1.57
2713.45,1.57
2715.45,1.64
2717.45,1.65
2719.45,1.65
2721.45,1.62
2723.45,1.52
2725.45,1.55
2727.45,1.54
2730.45,1.59
2732.45,1.64
2734.45,1.61
2736.45,1.73
2738.45,1.8
2740.45,1.76
2742.45,1.68
2744.45,1.52
2746.45,1.54
2748.45,1.6
2750.45,1.55
2752.45,1.64
2754.45,1.63
2755.45,1.39
2757.45,1.35
2759.45,1.33
2761.45,1.35
2763.45,1.33
2765.45,1.54
2767.45,1.54
2769.45,1.57
2772.45,1.57
2774.45,1.55
2776.45,1.58
2778.45,1.64
2780.45,1.65
2782.45,1.64
2784.45,1.65
2786.45,1.85
2788.45,1.93
2790.45,1.92
2792.45,1.96
2794.45,1.9
2796.45,1.98
2798.45,2.02
2799.45,1.98
2801.45,2.06
2803.45,1.87
2805.45,1.87
2807.45,1.97
2809.45,2.02
2811.45,2.06
2814.45,2.07
2816.45,2.17
2818.45,2.21
2820.45,2.16
2822.45,2.13
2824.45,1.95
2826.45,1.85
2828.45,1.88
2830.45,1.94
2832.45,2.02
2834.45,2.0
2836.45,2.12
2838.45,2.18
2840.45,2.07
2842.45,1.88
2843.45,1.78
2845.45,2.05
2847.45,2.04
2849.45,1.99
2851.45,2.31
2853.45,2.17
2855.45,2.25
2858.45,2.26
2860.45,2.28
2862.45,2.28
2864.45,2.16
2866.45,2.33
2868.45,2.29
2870.45,2.36
2872.45,2.37
2874.45,2.3
2876.45,2.39
2878.45,2.51
2880.45,2.49
2882.45,2.58
2884.45,2.62
2885.45,2.74
2887.45,2.85
2889.45,2.88
2891.45,2.93
2893.45,2.95
2895.45,3.0
2897.45,3.14
2900.45,2.93
2902.45,3.15
2904.45,3.26
2906.45,3.3
2908.45,3.3
2910.45,3.3
2912.45,3.3
2914.45,3.3
2916.45,3.3
2918.45,3.3
2920.45,3.3
2922.45,3.3
2924.45,3.3
2926.45,3.3
2928.45,3.3
2929.45,3.3
2931.45,3.22
2933.45,3.18
2935.45,2.79
2937.45,2.86
2939.45,2.65
2942.45,2.55
2944.45,2.21
2946.45,2.07
2948.45,1.84
2950.45,1.78
2952.45,1.79
2954.45,1.57
2956.45,1.5
2958.45,1.61
2960.45,1.48
2962.45,1.48
2964.45,1.4
2966.45,1.76
2968.45,2.0
2970.45,2.05
2971.45,2.05
2973.45,1.84
2975.45,1.66
2977.45,1.55
2979.45,1.72
2981.45,1.51
2983.45,0.79
2986.45,0.02
2988.45,0.0
2990.45,0.0
2992.45,0.22
2994.45,0.33
2996.45,0.11
2998.45,0.06
3000.45,0.0
3002.45,0.31
3004.45,0.67
3006.45,0.83
3008.45,0.73
3010.45,0.96
3012.45,1.06
3014.45,0.85
3015.45,1.05
3017.45,1.04
3019.45,1.04
3021.45,0.98
3023.45,0.91
3025.45,1.0
3028.45,1.39
3030.45,1.56
3032.45,1.46
3034.45,1.23
3036.45,1.57
3038.45,1.58
3040.45,1.49
3042.45,1.38
3044.45,1.24
3046.45,1.35
3048.45,1.74
3050.45,2.03
3052.45,2.04
3054.45,2.01
3056.45,1.97
3058.45,2.08
3059.45,1.94
3061.45,1.93
3063.45,1.72
3065.45,1.63
3067.45,1.34
3070.45,0.98
3072.45,0.84
3074.45,0.53
3076.45,0.46
3078.45,0.32
3080.45,0.37
3082.45,0.17
3084.45,0.06
3086.45,0.14
3088.45,0.05
3090.45,0.0
3092.45,0.16
3094.45,0.0
3096.45,0.0
3098.45,0.0
3100.45,0.0
3102.45,0.0
3103.45,0.0
3105.45,0.0
3107.45,0.0
3109.45,0.0
3111.45,0.0
3114.45,0.0
3116.45,0.0
3118.45,0.0
3120.45,0.03
3122.45,0.22
3124.45,0.11
3126.45,0.02
3128.45,0.0
3130.45,0.11
3132.45,0.11
3134.45,0.0
3136.45,0.32
3138.45,0.35
3140.45,0.27
3142.45,0.37
3144.45,0.47
3146.45,0.71
3147.45,0.67
3149.45,0.83
3151.45,1.07
3153.45,1.06
3156.45,1.25
3158.45,1.35
3160.45,1.31
3162.45,1.31
3164.45,1.25
3166.45,1.35
3168.45,1.34
3170.45,1.56
3172.45,1.64
3174.45,1.59
3176.45,1.71
3178.45,1.8
3180.45,1.74
3182.45,1.66
3184.45,1.43
3186.45,1.52
3188.45,1.46
3189.45,1.49
3191.45,1.45
3193.45,1.46
3195.45,1.5
3198.45,1.4
3200.45,1.32
3202.45,1.38
3204.45,1.22
3206.45,1.26
3208.45,1.25
3210.45,1.17
3212.45,1.18
3214.45,1.15
3216.45,1.19
3218.45,1.14
3220.45,1.15
3222.45,1.05
3224.45,1.0
3226.45,1.05
3228.45,0.87
3230.45,1.02
3232.45,0.99
3233.45,0.88
3235.45,0.94
3237.45,0.99
3239.45,1.02
3242.45,0.94
3244.45,0.83
3246.45,0.95
3248.45,0.89
3250.45,0.88
3252.45,0.86
3254.45,0.7
3256.45,0.8
3258.45,0.83
3260.45,0.82
3262.45,0.85
3264.45,0.63
3266.45,0.6
3268.45,0.61
3270.45,0.75
3272.45,0.73
3274.45,0.67
3275.45,0.71
3277.45,0.64
3279.45,0.68
3281.45,0.78
3284.45,0.75
3286.45,0.87
3288.45,0.91
3290.45,0.89
3292.45,0.88
3294.45,0.82
3296.45,0.94
3298.45,1.01
3300.45,1.01
3302.45,0.92
3304.45,0.87
3306.45,0.98
3308.45,0.95
3310.45,0.97
3312.45,1.0
3314.45,0.96
3316.45,0.99
3318.45,0.99
3319.45,1.05
3321.45,1.05
3323.45,0.98
3326.45,1.06
3328.45,1.05
3330.45,1.1
3332.45,1.02
3334.45,1.01
3336.45,1.1
3338.45,1.18
3340.45,1.12
3342.45,1.15
3344.45,1.13
3346.45,1.17
3348.45,1.15
3350.45,0.78
3352.45,0.72
3354.45,0.75
3356.45,0.86
3358.45,0.91
3360.45,0.98
3361.45,1.13
3363.45,1.03
3365.45,1.12
3367.45,1.22
3370.45,1.28
3372.45,1.3
3374.45,1.32
3376.45,1.44
3378.45,1.47
3380.45,1.57
3382.45,1.45
3384.45,1.38
3386.45,1.57
3388.45,1.61
3390.45,1.6
3392.45,1.67
3394.45,1.78
3396.45,1.88
3398.45,1.87
3400.45,1.81
3402.45,1.67
3404.45,1.58
3405.45,1.61
3407.45,1.63
3409.45,1.71
3412.45,1.84
3414.45,1.81
3416.45,1.88
3418.45,1.95
3420.45,1.87
3422.45,1.83
3424.45,1.76
3426.45,1.94
3428.45,2.09
3430.45,2.18
3432.45,2.12
3434.45,2.05
3436.45,2.11
3438.45,2.05
3440.45,1.98
3442.45,1.91
3444.45,1.81
3446.45,1.86
3447.45,1.86
3449.45,1.82
3451.45,1.78
3454.45,1.74
3456.45,1.83
3458.45,1.84
3460.45,1.8
3462.45,1.79
3464.45,1.63
3466.45,1.66
3468.45,1.75
3470.45,1.7
3472.45,1.68
3474.45,1.62
3476.45,1.67
3478.45,1.78
3480.45,1.8
3482.45,1.66
3484.45,1.55
3486.45,1.65
3488.45,1.67
3490.45,1.67
3491.45,1.67
3493.45,1.58
3495.45,1.69
3498.45,1.77
3500.45,1.74
3502.45,1.68
3504.45,1.58
3506.45,1.59
3508.45,1.55
3510.45,1.53
3512.45,1.6
3514.45,1.62
3516.45,1.75
3518.45,1.76
3520.45,1.7
3522.45,1.63
3524.45,1.55
3526.45,1.57
3528.45,1.59
3530.45,1.67
3532.45,1.58
3534.45,1.54
3535.45,1.66
3537.45,1.62
3540.45,1.63
3542.45,1.6
3544.45,1.52
3546.45,1.56
3548.45,1.51
3550.45,1.5
3552.45,1.55
3554.45,1.55
3556.45,1.62
3558.45,1.58
3560.45,1.63
3562.45,1.61
3564.45,1.49
3566.45,1.55
3568.45,1.47
3570.45,1.5
3572.45,1.49
3574.45,1.42
3576.45,1.44
3578.45,1.42
3579.45,1.43
3582.45,1.42
3584.45,1.35
3586.45,1.37
3588.45,1.37
3590.45,1.37
3592.45,1.37
3594.45,1.38
3596.45,1.48
3598.45,1.44
3600.45,1.38
3602.45,1.37
3604.45,1.32
3606.45,1.34
3608.45,1.36
3610.45,1.32
3612.45,1.33
3614.45,1.39
3616.45,1.47
3618.45,1.49
3620.45,1.55
3622.45,1.44
3623.45,1.37
3626.45,1.42
3628.45,1.45
3630.45,1.41
3632.45,1.37
3634.45,1.34
3636.45,1.42
3638.45,1.42
3640.45,1.42
3642.45,1.31
3644.45,1.27
3646.45,1.42
3648.45,1.41
3650.45,1.39
3652.45,1.43
3654.45,1.37
3656.45,1.41
3658.45,1.48
3660.45,1.46
3662.45,1.45
3664.45,1.39
3665.45,1.47
3668.45,1.55
3670.45,1.65
3672.45,1.69
3674.45,1.64
3676.45,1.7
3678.45,1.72
3680.45,1.68
3682.45,1.61
3684.45,1.57
3686.45,1.63
3688.45,1.62
3690.45,1.61
3692.45,1.58
3694.45,1.61
3696.45,1.74
3698.45,1.66
3700.45,1.67
3702.45,1.61
3704.45,1.53
3706.45,1.61
3708.45,1.65
3710.45,1.62
3712.45,1.69
3714.45,1.61
3716.45,1.65
3718.45,1.75
3720.45,1.75
3722.45,1.64
3724.45,1.6
3726.45,1.71
3728.45,1.7
3730.45,1.74
3732.45,1.72
3734.45,1.62
3736.45,1.73
3738.45,1.69
3740.45,1.64
3742.45,1.63
3744.45,1.6
3746.45,1.7
3748.45,1.74
3750.45,1.76
3751.45,1.77
3754.45,1.8
3756.45,1.93
3758.45,1.91
3760.45,1.91
3762.45,1.94
3764.45,1.91
3766.45,1.93
3768.45,1.98
3770.45,1.91
3772.45,1.81
3774.45,1.82
3776.45,1.92
3778.45,1.98
3780.45,1.88
3782.45,1.92
3784.45,1.88
3786.45,1.87
3788.45,1.95
3790.45,1.92
3792.45,1.9
3794.45,1.82
3796.45,2.0
3798.45,1.89
3800.45,2.04
3802.45,1.89
3804.45,2.0
3806.45,2.05
3808.45,2.01
3810.45,1.92
3812.45,2.05
3814.45,1.87
3816.45,2.1
3818.45,2.0
3820.45,2.0
3822.45,2.01
3824.45,1.81
3826.45,1.86
3828.45,2.03
3830.45,1.93
3832.45,1.88
3834.45,2.09
3836.45,1.93
3838.45,2.09
3840.45,2.04
3842.45,2.03
3844.45,2.03
3846.45,2.15
3848.45,2.15
3850.45,1.97
3852.45,1.96
3854.45,2.14
3856.45,2.07
3858.45,1.78
3860.45,2.16
3862.45,1.97
3864.45,1.88
3866.45,1.95
3868.45,1.85
3870.45,1.8
3872.45,1.88
3874.45,1.74
3876.45,1.49
3878.45,1.56
3881.45,1.69
3882.45,1.78
3884.45,1.66
3886.45,2.04
3888.45,2.62
3890.45,2.99
3892.45,2.86
3894.45,2.6
3896.45,3.08
3898.45,3.3
3900.45,3.3
3902.45,3.3
3904.45,3.3
3906.45,3.3
3908.45,3.3
3910.45,3.3
3912.45,3.3
3914.45,3.22
3916.45,3.11
3918.45,2.94
3920.45,2.75
3922.45,2.54
3924.45,2.23
3926.45,1.83
3928.45,1.62
3930.45,1.47
3932.45,1.36
3934.45,1.45
3936.45,1.3
3938.45,1.0
3940.45,0.72
3942.45,0.76
3944.45,0.0
3946.45,0.0
3948.45,0.11
3950.45,0.18
3952.45,0.0
3954.45,0.0
3956.45,0.0
3958.45,0.0
3960.45,0.0
3962.45,0.0
3964.45,0.0
3967.45,0.0
3968.45,0.0
3970.45,0.0
3972.45,0.0
3974.45,0.0
3976.45,0.0
3978.45,0.0
3980.45,0.0
3982.45,0.0
3984.45,0.0
3986.45,0.0
3988.45,0.0
3990.45,0.0
3992.45,0.0
3994.45,0.0
3996.45,0.0
3998.45,0.0
4000.45,0.0
4002.45,0.0
4004.45,0.0
4006.45,0.0
4009.45,0.0
4011.45,0.0
4012.45,0.0
4014.45,0.0
4016.45,0.0
4018.45,0.0
4020.45,0.0
4022.45,0.0
4024.45,0.0
4026.45,0.0
4028.45,0.0
4030.45,0.0
4032.45,0.0
4034.45,0.0
4036.45,0.0
4038.45,0.0
4040.45,0.0
4042.45,0.0
4044.45,0.0
4046.45,0.0
4048.45,0.0
4050.45,0.0
4053.45,0.0
4054.45,0.0
4056.45,0.0
4058.45,0.0
4060.45,0.01
4062.45,0.0
4064.45,0.06
4066.45,0.21
4068.45,0.29
4070.45,0.41
4072.45,0.59
4074.45,0.83
4076.45,0.96
4078.45,0.84
4080.45,1.1
4082.45,1.05
4084.45,1.01
4086.45,1.26
4088.45,1.32
4090.45,1.3
4092.45,1.55
4095.45,1.45
4097.45,1.33
4098.45,1.53
4100.45,1.71
4102.45,1.72
4104.45,1.81
4106.45,1.81
4108.45,1.84
4110.45,1.85
4112.45,1.89
4114.45,1.84
4116.45,2.11
4118.45,2.32
4120.45,2.31
4122.45,2.12
4124.45,2.3
4126.45,2.38
4128.45,2.52
4130.45,2.42
4132.45,2.5
4134.45,2.42
4137.45,2.52
4139.45,2.56
4140.45,2.6
4142.45,2.61
4144.45,2.66
4146.45,2.7
4148.45,2.67
4150.45,2.66
4152.45,2.55
4154.45,2.49
4156.45,2.12
4158.45,1.77
4160.45,1.6
4162.45,1.32
4164.45,1.21
4166.45,1.29
4168.45,1.3
4170.45,1.2
4172.45,1.19
4174.45,1.3
4176.45,1.38
4178.45,1.28
4181.45,0.88
4183.45,0.55
4184.45,0.34
4186.45,0.99
4188.45,0.97
4190.45,1.03
4192.45,0.98
4194.45,1.02
4196.45,1.03
4198.45,1.15
4200.45,1.09
4202.45,1.05
4204.45,1.12
4206.45,1.14
4208.45,1.07
4210.45,1.13
4212.45,1.01
4214.45,1.02
4216.45,1.13
4218.45,1.17
4220.45,1.24
4223.45,1.27
4225.45,1.33
4226.45,1.48
4228.45,1.59
4230.45,1.65
4232.45,1.47
4234.45,1.52
4236.45,1.75
4238.45,1.78
4240.45,1.76
4242.45,1.74
4244.45,1.73
4246.45,1.76
4248.45,1.77
4250.45,1.7
4252.45,1.67
4254.45,1.7
4256.45,1.74
4258.45,1.78
4260.45,1.82
4262.45,1.71
4265.45,1.63
4267.45,1.64
4269.45,1.65
4270.45,1.65
4272.45,1.68
4274.45,1.59
4276.45,1.6
4278.45,1.58
4280.45,1.56
4282.45,1.42
4284.45,1.38
4286.45,1.45
4288.45,1.28
4290.45,1.21
4292.45,1.19
4294.45,1.27
4296.45,1.45
4298.45,1.45
4300.45,1.39
4302.45,1.33
4304.45,1.31
4306.45,1.33
4309.45,1.39
4311.45,1.39
4312.45,1.37
4314.45,1.39
4316.45,1.53
4318.45,1.51
4320.45,1.48
4322.45,1.4
4324.45,1.38
4326.45,1.35
4328.45,1.3
4330.45,1.53
4332.45,1.6
4334.45,1.75
4336.45,1.84
4338.45,1.74
4340.45,1.62
4342.45,1.59
4344.45,1.64
4346.45,1.72
4348.45,1.81
4351.45,1.77
4353.45,1.76
4355.45,1.68
4356.45,1.72
4358.45,1.71
4360.45,1.72
4362.45,1.61
4364.45,1.61
4366.45,1.63
4368.45,1.72
4370.45,1.8
4372.45,1.81
4374.45,1.77
4376.45,1.82
4378.45,1.86
4380.45,1.82
4382.45,1.74
4384.45,1.76
4386.45,1.75
4388.45,1.67
4390.45,1.75
4393.45,1.72
4395.45,1.75
4397.45,1.81
4398.45,1.77
4400.45,1.81
4402.45,1.73
4404.45,1.65
4406.45,1.65
4408.45,1.61
4410.45,1.7
4412.45,1.75
4414.45,1.72
4416.45,1.75
4418.45,1.8
4420.45,1.78
4422.45,1.75
4424.45,1.76
4426.45,1.81
4428.45,1.82
4430.45,1.84
4432.45,1.86
4434.45,1.88
4437.45,1.98
4439.45,1.95
4441.45,1.89
4442.45,1.74
4444.45,1.75
4446.45,1.75
4448.45,1.7
4450.45,1.75
4452.45,1.71
4454.45,1.75
4456.45,1.85
4458.45,1.85
4460.45,1.83
4462.45,1.68
4464.45,1.65
4466.45,1.61
4468.45,1.58
4470.45,1.53
4472.45,1.43
4474.45,1.4
4476.45,1.49
4479.45,1.5
4481.45,1.51
4483.45,1.42
4485.45,1.49
4486.45,1.64
4488.45,1.65
4490.45,1.6
4492.45,1.56
4494.45,1.56
4496.45,1.58
4498.45,1.56
4500.45,1.59
4502.45,1.49
4504.45,1.51
4506.45,1.45
4508.45,1.39
4510.45,1.42
4512.45,1.38
4514.45,1.35
4516.45,1.46
4518.45,1.43
4521.45,1.41
4523.45,1.3
4525.45,1.33
4527.45,1.36
4528.45,1.41
4530.45,1.45
4532.45,1.14
4534.45,1.08
4536.45,1.08
4538.45,0.97
4540.45,0.89
4542.45,0.92
4544.45,1.0
4546.45,1.06
4548.45,1.11
4550.45,1.11
4552.45,1.13
4554.45,1.15
4556.45,1.17
4558.45,1.2
4560.45,1.27
4562.45,1.21
4565.45,1.25
4567.45,1.37
4569.45,1.46
4570.45,1.49
4572.45,1.53
4574.45,1.62
4576.45,1.67
4578.45,1.76
4580.45,1.68
4582.45,1.55
4584.45,1.56
4586.45,1.67
4588.45,1.68
4590.45,1.7
4592.45,1.67
4594.45,1.69
4596.45,1.74
4598.45,1.73
4600.45,1.71
4602.45,1.65
4604.45,1.61
4607.45,1.63
4609.45,1.65
4611.45,1.77
4613.45,1.72
4614.45,1.7
4616.45,1.76
4618.45,1.74
4620.45,1.74
4622.45,1.65
4624.45,1.7
4626.45,1.72
4628.45,1.79
4630.45,1.77
4632.45,1.75
4634.45,1.85
4636.45,1.92
4638.45,1.79
4640.45,1.8
4642.45,1.75
4644.45,1.72
4646.45,1.8
4649.45,1.75
4651.45,1.77
4653.45,1.81
4655.45,1.88
4657.45,1.85
4658.45,1.87
4660.45,1.9
4662.45,1.76
4664.45,1.83
4666.45,1.88
4668.45,1.85
4670.45,1.84
4672.45,1.83
4674.45,1.87
4676.45,1.97
4678.45,1.87
4680.45,1.79
4682.45,1.68
4684.45,1.75
4686.45,1.7
4688.45,1.72
4690.45,1.75
4693.45,1.7
4695.45,1.76
4697.45,1.78
4699.45,1.73
4701.45,1.68
4702.45,1.57
4704.45,1.64
4706.45,1.64
4708.45,1.66
4710.45,1.64
4712.45,1.66
4714.45,1.65
4716.45,1.7
4718.45,1.59
4720.45,1.57
4722.45,1.48
4724.45,1.52
4726.45,1.49
4728.45,1.58
4730.45,1.62
4732.45,1.62
4735.45,1.66
4737.45,1.67
4739.45,1.63
4741.45,1.61
4743.45,1.53
4745.45,1.63
4746.45,1.64
4748.45,1.64
4750.45,1.63
4752.45,1.58
4754.45,1.61
4756.45,1.59
4758.45,1.37
4760.45,1.31
4762.45,1.23
4764.45,1.3
4766.45,1.26
4768.45,1.28
4770.45,1.35
4772.45,1.31
4774.45,1.38
4777.45,1.43
4779.45,1.44
4781.45,1.45
4783.45,1.39
4785.45,1.44
4787.45,1.5
4789.45,1.51
4790.45,1.51
4792.45,1.51
4794.45,1.52
4796.45,1.58
4798.45,1.57
4800.45,1.55
4802.45,1.45
4804.45,1.53
4806.45,1.55
4808.45,1.54
4810.45,1.58
4812.45,1.57
4814.45,1.62
4816.45,1.61
4818.45,1.71
4821.45,1.73
4823.45,1.56
4825.45,1.63
4827.45,1.72
4829.45,1.74
4831.45,1.8
4832.45,1.81
4834.45,1.86
4836.45,1.82
4838.45,1.71
4840.45,1.63
4842.45,1.55
4844.45,1.64
4846.45,1.62
4848.45,1.58
4850.45,1.62
4852.45,1.55
4854.45,1.48
4856.45,1.47
4858.45,1.38
4860.45,1.39
4863.45,1.25
4865.45,1.27
4867.45,1.35
4869.45,1.43
4871.45,1.38
4873.45,1.32
4874.45,1.39
4876.45,1.45
4878.45,1.35
4880.45,1.4
4882.45,1.3
4884.45,1.35
4886.45,1.43
4888.45,1.44
4890.45,1.45
4892.45,1.48
4894.45,1.62
4896.45,1.62
4898.45,1.61
4900.45,1.6
4902.45,1.55
4905.45,1.63
4907.45,1.55
4909.45,1.49
4911.45,1.57
4913.45,1.53
4915.45,1.58
4917.45,1.53
4918.45,1.48
4920.45,1.45
4922.45,1.41
4924.45,1.44
4926.45,1.45
4928.45,1.5
4930.45,1.51
4932.45,1.49
4934.45,1.52
4936.45,1.55
4938.45,1.52
4940.45,1.47
4942.45,1.4
4944.45,1.5
4946.45,1.54
4949.45,1.57
4951.45,1.65
4953.45,1.62
4955.45,1.7
4957.45,1.67
4959.45,1.73
4961.45,1.75
4962.45,1.75
4964.45,1.71
4966.45,1.67
4968.45,1.5
4970.45,1.46
4972.45,1.52
4974.45,1.62
4976.45,1.75
4978.45,1.81
4980.45,1.78
4982.45,1.7
4984.45,1.76
4986.45,1.78
4988.45,1.66
4991.45,1.64
4993.45,1.94
4995.45,1.94
4997.45,1.95
4999.45,1.92
5001.45,1.96
5003.45,1.85
5004.45,1.85
5006.45,1.97
5008.45,1.89
5010.45,1.95
5012.45,1.96
5014.45,1.95
5016.45,1.93
5018.45,2.06
5020.45,2.05
5022.45,1.96
5024.45,1.82
5026.45,1.94
5028.45,2.01
5030.45,2.01
5033.45,1.9
5035.45,2.09
5037.45,2.12
5039.45,2.08
5041.45,2.07
5043.45,2.07
5045.45,2.06
5047.45,1.9
5048.45,1.94
5050.45,1.85
5052.45,1.64
5054.45,1.77
5056.45,1.8
5058.45,1.71
5060.45,1.81
5062.45,2.07
5064.45,1.9
5066.45,1.65
5068.45,1.69
5070.45,1.49
5072.45,1.35
5074.45,1.4
5077.45,1.29
5079.45,1.0
5081.45,0.84
5083.45,0.84
5085.45,0.78
5087.45,0.72
5089.45,0.63
5091.45,0.73
5092.45,0.7
5094.45,0.91
5096.45,0.92
5098.45,0.87
5100.45,1.04
5102.45,1.04
5104.45,1.07
5106.45,0.99
5108.45,1.21
5110.45,1.19
5112.45,1.12
5114.45,1.24
5116.45,1.34
5119.45,1.26
5121.45,1.27
5123.45,1.27
5125.45,1.34
5127.45,1.32
5129.45,1.24
5131.45,1.19
5133.45,1.48
5135.45,1.76
5136.45,2.18
5138.45,3.3
5140.45,3.3
5142.45,3.3
5144.45,3.3
5146.45,3.3
5148.45,3.3
5150.45,3.3
5152.45,3.3
5154.45,3.3
5156.45,3.29
5158.45,1.86
5161.45,1.26
5163.45,1.08
5165.45,1.2
5167.45,1.29
5169.45,1.43
5171.45,1.47
5173.45,1.31
5175.45,1.53
5177.45,1.46
5179.45,1.51
5180.45,1.39
5182.45,1.29
5184.45,1.56
5186.45,1.57
5188.45,1.64
5190.45,1.63
5192.45,1.63
5194.45,1.97
5196.45,1.91
5198.45,1.89
5200.45,1.79
5202.45,1.95
5205.45,2.19
5207.45,2.4
5209.45,2.46
5211.45,2.62
5213.45,2.47
5215.45,1.98
5217.45,0.5
5219.45,0.37
5221.45,0.24
5222.45,0.17
5224.45,0.25
5226.45,0.34
5228.45,0.16
5230.45,0.09
5232.45,0.11
5234.45,0.4
5236.45,0.39
5238.45,0.47
5240.45,0.2
5242.45,0.0
5244.45,0.0
5247.45,0.0
5249.45,0.0
5251.45,0.0
5253.45,0.56
5255.45,0.87
5257.45,0.65
5259.45,0.94
5261.45,1.05
5263.45,0.9
5265.45,1.0
5266.45,0.97
5268.45,0.96
5270.45,1.05
5272.45,0.98
5274.45,1.12
5276.45,1.17
5278.45,1.19
5280.45,1.26
5282.45,1.09
5284.45,1.16
5286.45,1.19
5289.45,1.15
5291.45,1.31
5293.45,1.3
5295.45,1.38
5297.45,1.43
5299.45,1.35
5301.45,1.25
5303.45,1.23
5305.45,1.3
5307.45,1.39
5308.45,1.41
5310.45,1.52
5312.45,1.59
5314.45,1.66
5316.45,1.72
5318.45,1.57
5320.45,1.46
5322.45,1.36
5324.45,1.4
5326.45,1.44
5328.45,1.5
5330.45,1.46
5333.45,1.45
5335.45,1.54
5337.45,1.46
5339.45,1.34
5341.45,1.34
5343.45,1.2
5345.45,1.16
5347.45,1.18
5349.45,1.18
5351.45,1.13
5352.45,1.07
5354.45,1.21
5356.45,1.19
5358.45,1.17
5360.45,1.23
5362.45,1.02
5364.45,1.02
5366.45,1.08
5368.45,1.15
5370.45,1.37
5372.45,1.43
5375.45,1.74
5377.45,2.03
5379.45,2.0
5381.45,1.82
5383.45,1.65
5385.45,1.64
5387.45,1.53
5389.45,1.5
5391.45,1.44
5393.45,1.35
5394.45,1.38
5396.45,1.41
5398.45,1.37
5400.45,1.3
5402.45,1.18
5404.45,1.24
5406.45,1.18
5408.45,1.23
5410.45,1.16
5412.45,1.13
5414.45,1.19
5417.45,1.22
5419.45,1.2
5421.45,1.19
5423.45,1.0
5425.45,1.0
5427.45,0.97
5429.45,0.92
5431.45,0.91
5433.45,0.93
5435.45,1.05
5437.45,0.98
5438.45,1.0
5440.45,1.09
5442.45,1.1
5444.45,1.2
5446.45,1.22
5448.45,1.15
5450.45,1.12
5452.45,1.09
5454.45,1.2
5456.45,1.15
5458.45,1.2
5461.45,1.24
5463.45,1.12
5465.45,1.26
5467.45,1.25
5469.45,1.35
5471.45,1.39
5473.45,1.32
5475.45,1.39
5477.45,1.46
5479.45,1.51
5480.45,1.48
5482.45,1.45
5484.45,1.68
5486.45,1.8
5488.45,1.86
5490.45,1.79
5492.45,1.68
5494.45,1.75
5496.45,1.81
5498.45,1.74
5500.45,1.72
5503.45,1.6
5505.45,1.67
5507.45,1.66
5509.45,1.7
5511.45,1.77
5513.45,1.78
5515.45,1.91
5517.45,1.93
5519.45,1.96
5521.45,1.95
5523.45,1.83
5524.45,1.84
5526.45,1.9
5528.45,1.92
5530.45,1.92
5532.45,1.83
5534.45,1.9
5536.45,1.87
5538.45,1.84
5540.45,1.75
5542.45,1.67
5545.45,1.74
5547.45,1.64
5549.45,1.63
5551.45,1.7
5553.45,1.65
5555.45,1.65
5557.45,1.62
5559.45,1.53
5561.45,1.46
5563.45,1.39
5565.45,1.47
5567.45,1.47
5568.45,1.5
5570.45,1.54
5572.45,1.49
5574.45,1.55
5576.45,1.56
5578.45,1.51
5580.45,1.48
5582.45,1.39
5584.45,1.45
5586.45,1.48
5589.45,1.57
5591.45,1.6
5593.45,1.57
5595.45,1.72
5597.45,1.67
5599.45,1.7
5601.45,1.72
5603.45,1.64
5605.45,1.76
5607.45,1.77
5609.45,1.76
5611.45,1.81
5612.45,1.8
5614.45,1.85
5616.45,1.79
5618.45,1.73
5620.45,1.57
5622.45,1.41
5624.45,1.41
5626.45,1.42
5628.45,1.46
5631.45,1.53
5633.45,1.51
5635.45,1.59
5637.45,1.6
5639.45,1.61
5641.45,1.54
5643.45,1.48
5645.45,1.58
5647.45,1.51
5649.45,1.55
5651.45,1.54
5653.45,1.39
5654.45,1.44
5656.45,1.4
5658.45,1.35
5660.45,1.31
5662.45,1.2
5664.45,1.21
5666.45,1.23
5668.45,1.22
5670.45,1.18
5673.45,1.12
5675.45,1.25
5677.45,1.21
5679.45,1.19
5681.45,1.15
5683.45,1.07
5685.45,1.17
5687.45,1.22
5689.45,1.21
5691.45,1.19
5693.45,1.23
5695.45,1.38
5697.45,1.36
5698.45,1.39
5700.45,1.35
5702.45,1.32
5704.45,1.41
5706.45,1.39
5708.45,1.42
5710.45,1.45
5712.45,1.4
5714.45,1.47
5717.45,1.52
5719.45,1.53
5721.45,1.45
5723.45,1.35
5725.45,1.39
5727.45,1.38
5729.45,1.43
5731.45,1.43
5733.45,1.35
5735.45,1.43
5737.45,1.4
5739.45,1.3
5741.45,1.26
5742.45,1.17
5744.45,1.22
5746.45,1.22
5748.45,1.24
5750.45,1.24
5752.45,1.2
5754.45,1.31
5756.45,1.25
5759.45,1.25
5761.45,1.26
5763.45,1.18
5765.45,1.24
5767.45,1.28
5769.45,1.33
5771.45,1.34
5773.45,1.36
5775.45,1.45
5777.45,1.47
5779.45,1.48
5781.45,1.45
5783.45,1.35
5785.45,1.41
5786.45,1.39
5788.45,1.3
5790.45,1.34
5792.45,1.32
5794.45,1.37
5796.45,1.38
5798.45,1.39
5801.45,1.34
5803.45,1.26
5805.45,1.32
5807.45,1.28
5809.45,1.38
5811.45,1.43
5813.45,1.4
5815.45,1.41
5817.45,1.36
5819.45,1.33
5821.45,1.3
5823.45,1.24
5825.45,1.29
5827.45,1.38
5828.45,1.4
5830.45,1.38
5832.45,1.38
5834.45,1.48
5836.45,1.41
5838.45,1.39
5840.45,1.4
5842.45,1.31
5845.45,1.37
5847.45,1.36
5849.45,1.39
5851.45,1.46
5853.45,1.48
5855.45,1.51
5857.45,1.44
5859.45,1.51
5861.45,1.46
5863.45,1.35
5865.45,1.46
5867.45,1.51
5869.45,1.52
5871.45,1.59
5872.45,1.53
5874.45,1.59
5876.45,1.61
5878.45,1.57
5880.45,1.46
5882.45,1.45
5884.45,1.55
5887.45,1.63
5889.45,1.67
5891.45,1.7
5893.45,1.61
5895.45,1.79
5897.45,1.56
5899.45,1.91
5901.45,2.08
5903.45,2.03
5905.45,2.01
5907.45,1.92
5909.45,1.88
5911.45,1.87
5913.45,1.86
5914.45,2.01
5916.45,1.98
5918.45,1.92
5920.45,1.91
5922.45,1.88
5924.45,1.97
5926.45,2.0
5929.45,2.07
5931.45,2.01
5933.45,2.08
5935.45,2.19
5937.45,2.09
5939.45,2.15
5941.45,2.04
5943.45,1.94
5945.45,1.95
5947.45,1.76
5949.45,1.95
5951.45,1.86
5953.45,1.97
5955.45,2.04
5957.45,1.92
5958.45,1.98
5960.45,1.95
5962.45,1.94
5964.45,2.04
5966.45,2.07
5968.45,2.19
5970.45,2.2
5973.45,2.13
5975.45,2.23
5977.45,2.19
5979.45,2.28
5981.45,2.3
5983.45,2.28
5985.45,2.26
5987.45,2.25
5989.45,2.07
5991.45,1.97
5993.45,1.97
5995.45,2.03
5997.45,1.92
5999.45,1.84
6001.45,1.75
6002.45,1.69
6004.45,1.5
6006.45,1.36
6008.45,1.4
6010.45,1.54
6012.45,1.5
6015.45,1.39
6017.45,1.58
6019.45,1.62
6021.45,1.55
6023.45,1.56
6025.45,1.77
6027.45,1.76
6029.45,1.77
6031.45,1.89
6033.45,1.72
6035.45,1.72
6037.45,1.65
6039.45,1.58
6041.45,1.23
6043.45,1.01
6044.45,1.15
6046.45,1.15
6048.45,1.21
6050.45,1.19
6052.45,1.02
6054.45,1.09
6057.45,1.16
6059.45,1.18
6061.45,1.08
6063.45,0.96
6065.45,1.07
6067.45,0.9
6069.45,1.06
6071.45,1.14
6073.45,1.07
6075.45,1.16
6077.45,1.16
6079.45,1.2
6081.45,1.05
6083.45,0.92
6085.45,1.03
6087.45,1.06
6088.45,1.03
6090.45,1.09
6092.45,1.04
6094.45,1.15
6096.45,1.15
6098.45,1.01
6101.45,1.02
6103.45,1.1
6105.45,0.71
6107.45,0.39
6109.45,0.52
6111.45,0.59
6113.45,0.55
6115.45,0.49
6117.45,0.37
6119.45,0.0
6121.45,0.0
6123.45,0.0
6125.45,0.0
6127.45,0.04
6129.45,0.23
6131.45,0.33
6132.45,0.32
6134.45,0.46
6136.45,0.54
6138.45,0.62
6140.45,0.55
6143.45,0.6
6145.45,0.62
6147.45,0.68
6149.45,0.84
6151.45,1.01
6153.45,0.96
6155.45,1.08
6157.45,1.03
6159.45,1.08
6161.45,1.08
6163.45,1.02
6165.45,1.04
6167.45,1.0
6169.45,0.89
6171.45,1.01
6173.45,1.0
6175.45,1.07
6176.45,1.07
6178.45,1.02
6180.45,1.02
6182.45,1.16
6185.45,1.26
6187.45,1.3
6189.45,1.35
6191.45,1.46
6193.45,1.51
6195.45,1.61
6197.45,1.57
6199.45,1.47
6201.45,1.36
6203.45,1.55
6205.45,1.55
6207.45,1.62
6209.45,1.54
6211.45,1.83
6213.45,1.97
6215.45,1.95
6217.45,1.87
6219.45,1.91
6220.45,1.91
6222.45,1.88
6224.45,1.94
6226.45,1.99
6229.45,2.1
6231.45,2.16
6233.45,2.34
6235.45,2.28
6237.45,2.33
6239.45,2.23
6241.45,2.11
6243.45,2.15
6245.45,2.1
6247.45,2.05
6249.45,2.08
6251.45,2.05
6253.45,2.02
6255.45,2.14
6257.45,2.09
6259.45,2.02
6261.45,1.82
6262.45,1.83
6264.45,1.92
6266.45,1.9
6268.45,1.98
6271.45,1.94
6273.45,1.68
6275.45,1.57
6277.45,1.58
6279.45,1.49
6281.45,1.38
6283.45,1.5
6285.45,1.56
6287.45,1.58
6289.45,1.68
6291.45,1.75
6293.45,1.75
6295.45,1.86
6297.45,1.74
6299.45,1.77
6301.45,1.62
6303.45,1.61
6305.45,1.68
6306.45,1.72
6308.45,1.8
6310.45,1.84
6313.45,1.81
6315.45,1.88
6317.45,2.1
6319.45,2.18
6321.45,2.18
6323.45,2.18
6325.45,2.15
6327.45,2.13
6329.45,2.2
6331.45,2.22
6333.45,2.15
6335.45,2.05
6337.45,1.97
6339.45,1.88
6341.45,1.71
6343.45,1.63
6345.45,1.57
6347.45,1.49
6349.45,1.39
6350.45,1.14
6352.45,1.02
6354.45,1.0
6357.45,1.0
6359.45,1.02
6361.45,0.91
6363.45,0.96
6365.45,0.92
6367.45,0.88
6369.45,0.88
6371.45,0.87
6373.45,0.89
6375.45,0.98
6377.45,0.97
6379.45,0.94
6381.45,0.98
6383.45,1.04
6385.45,1.02
6387.45,1.03
6389.45,1.03
6391.45,1.07
6393.45,1.15
6394.45,1.21
6396.45,1.19
6399.45,1.21
6401.45,1.13
6403.45,1.22
6405.45,1.16
6407.45,1.15
6409.45,1.13
6411.45,1.1
6413.45,1.09
6415.45,1.13
6417.45,1.14
6419.45,1.12
6421.45,1.03
6423.45,1.03
6425.45,1.08
6427.45,1.11
6429.45,1.13
6431.45,1.1
6433.45,1.17
6435.45,1.14
6437.45,1.09
6438.45,1.03
6441.45,0.93
6443.45,0.98
6445.45,1.03
6447.45,1.08
6449.45,1.21
6451.45,1.21
6453.45,1.26
6455.45,1.29
6457.45,1.29
6459.45,1.32
6461.45,1.24
6463.45,1.24
6465.45,1.31
6467.45,1.42
6469.45,1.37
6471.45,1.31
6473.45,1.34
6475.45,1.37
6477.45,1.37
6479.45,1.42
6480.45,1.33
6482.45,1.37
6485.45,1.41
6487.45,1.43
6489.45,1.43
6491.45,1.43
6493.45,1.47
6495.45,1.49
6497.45,1.51
6499.45,1.54
6501.45,1.46
6503.45,1.47
6505.45,1.48
6507.45,1.43
6509.45,1.49
6511.45,1.52
6513.45,1.49
6515.45,1.54
6517.45,1.58
6519.45,1.49
6521.45,1.38
6523.45,1.48
6524.45,1.54
6527.45,1.59
6529.45,1.62
6531.45,1.59
6533.45,1.65
6535.45,1.65
6537.45,1.61
6539.45,1.62
6541.45,1.57
6543.45,1.6
6545.45,1.55
6547.45,1.58
6549.45,1.63
6551.45,1.61
6553.45,1.73
6555.45,1.72
6557.45,1.7
6559.45,1.69
6561.45,1.59
6563.45,1.53
6565.45,1.56
6566.45,1.56
6569.45,1.54
6571.45,1.56
6573.45,1.63
6575.45,1.73
6577.45,1.73
6579.45,1.67
6581.45,1.55
6583.45,1.65
6585.45,1.63
6587.45,1.6
6589.45,1.63
6591.45,1.61
6593.45,1.63
6595.45,1.68
6597.45,1.66
6599.45,1.59
6601.45,1.46
6603.45,1.51
6605.45,1.45
6607.45,1.49
6609.45,1.56
6610.45,1.54
6613.45,1.56
6615.45,1.63
6617.45,1.57
6619.45,1.56
6621.45,1.44
6623.45,1.44
6625.45,1.44
6627.45,1.5
6629.45,1.46
6631.45,1.49
6633.45,1.56
6635.45,1.63
6637.45,1.56
6639.45,1.57
6641.45,1.46
6643.45,1.53
6645.45,1.57
6647.45,1.61
6649.45,1.62
6651.45,1.6
6652.45,1.64
6655.45,1.65
6657.45,1.68
6659.45,1.65
6661.45,1.56
6663.45,1.65
6665.45,1.66
6667.45,1.65
6669.45,1.61
6671.45,1.56
6673.45,1.61
6675.45,1.69
6677.45,1.8
6679.45,1.7
6681.45,1.63
6683.45,1.64
6685.45,1.61
6687.45,1.63
6689.45,1.65
6691.45,1.62
6693.45,1.66
6695.45,1.64
6697.45,1.57
6699.45,1.6
6701.45,1.48
6703.45,1.49
6705.45,1.53
6707.45,1.53
6709.45,1.56
6711.45,1.59
6713.45,1.68
6715.45,1.73
6717.45,1.76
6719.45,1.68
6721.45,1.56
6723.45,1.58
6725.45,1.59
6727.45,1.55
6729.45,1.52
6731.45,1.48
6733.45,1.54
6735.45,1.54
6737.45,1.48
6740.45,1.46
6741.45,1.39
6743.45,1.45
6745.45,1.41
6747.45,1.41
6749.45,1.52
6751.45,1.46
6753.45,1.48
6755.45,1.53
6757.45,1.57
6759.45,1.52
6761.45,1.38
6763.45,1.37
6765.45,1.4
6767.45,1.45
6769.45,1.43
6771.45,1.42
6773.45,1.5
6775.45,1.51
6777.45,1.48
6779.45,1.45
6782.45,1.34
6783.45,1.41
6785.45,1.38
6787.45,1.44
6789.45,1.43
6791.45,1.43
6793.45,1.51
6795.45,1.51
6797.45,1.51
6799.45,1.5
6801.45,1.33
6803.45,1.39
6805.45,1.38
6807.45,1.45
6809.45,1.46
6811.45,1.45
6813.45,1.48
6815.45,1.48
6817.45,1.46
6819.45,1.37
6821.45,1.32
6823.45,1.36
6826.45,1.37
6827.45,1.38
6829.45,1.38
6831.45,1.41
6833.45,1.51
6835.45,1.53
6837.45,1.5
6839.45,1.45
6841.45,1.39
6843.45,1.38
6845.45,1.33
6847.45,1.45
6849.45,1.45
6851.45,1.39
6853.45,1.44
6855.45,1.44
6857.45,1.44
6859.45,1.42
6861.45,1.3
6863.45,1.3
6865.45,1.37
6868.45,1.47
6869.45,1.48
6871.45,1.5
6873.45,1.64
6875.45,1.59
6877.45,1.61
6879.45,1.54
6881.45,1.48
6883.45,1.55
6885.45,1.53
6887.45,1.65
6889.45,1.57
6891.45,1.49
6893.45,1.63
6895.45,1.61
6897.45,1.61
6899.45,1.69
6901.45,1.64
6903.45,1.79
6905.45,1.61
6907.45,1.88
6910.45,1.86
6912.45,1.76
6913.45,1.67
6915.45,1.92
6917.45,2.22
6919.45,2.21
6921.45,2.24
6923.45,2.05
6925.45,2.15
6927.45,2.21
6929.45,2.41
6931.45,2.07
6933.45,2.32
6935.45,2.13
6937.45,2.05
6939.45,2.03
6941.45,1.88
6943.45,2.16
6945.45,2.41
6947.45,2.59
6949.45,2.33
6951.45,2.47
6954.45,2.49
6955.45,2.32
6957.45,2.37
6959.45,2.31
6961.45,2.09
6963.45,2.05
6965.45,1.96
6967.45,1.87
6969.45,1.76
6971.45,1.67
6973.45,1.66
6975.45,1.64
6977.45,1.54
6979.45,1.55
6981.45,1.41
6983.45,1.44
6985.45,1.39
6987.45,1.3
6989.45,1.29
6991.45,1.28
6993.45,1.36
6996.45,1.31
6998.45,1.53
6999.45,1.49
7001.45,1.4
7003.45,1.4
7005.45,1.4
7007.45,1.52
7009.45,1.43
7011.45,1.49
7013.45,1.65
7015.45,1.72
7017.45,1.6
7019.45,1.62
7021.45,1.61
7023.45,1.6
7025.45,1.64
7027.45,1.74
7029.45,1.77
7031.45,0.89
7033.45,0.0
7035.45,0.0
7038.45,0.0
7040.45,0.0
7042.45,0.0
7043.45,0.0
7045.45,0.0
7047.45,0.0
7049.45,0.0
7051.45,0.0
7053.45,0.0
7055.45,0.0
7057.45,0.0
7059.45,0.0
7061.45,0.0
7063.45,0.0
7065.45,0.0
7067.45,0.0
7069.45,0.0
7071.45,0.0
7073.45,0.18
7075.45,0.2
7077.45,0.37
7079.45,0.42
7082.45,0.37
7084.45,0.5
7086.45,0.58
7087.45,0.63
7089.45,0.61
7091.45,0.81
7093.45,1.1
7095.45,1.28
7097.45,1.28
7099.45,1.36
7101.45,1.31
7103.45,1.37
7105.45,1.35
7107.45,1.32
7109.45,1.26
7111.45,1.35
7113.45,1.47
7115.45,1.42
7117.45,1.36
7119.45,1.35
7121.45,1.25
7124.45,1.3
7126.45,1.29
7128.45,0.93
7130.45,1.0
7131.45,0.95
7133.45,1.04
7135.45,1.19
7137.45,1.02
7139.45,0.96
7141.45,0.89
7143.45,1.15
7145.45,1.13
7147.45,1.2
7149.45,1.25
7151.45,1.22
7153.45,1.23
7155.45,1.33
7157.45,1.34
7159.45,1.44
7161.45,1.38
7163.45,1.24
7166.45,1.28
7168.45,1.54
7170.45,1.71
7172.45,1.69
7174.45,1.76
7175.45,1.83
7177.45,1.81
7179.45,1.63
7181.45,1.65
7183.45,1.76
7185.45,1.68
7187.45,1.69
7189.45,1.94
7191.45,2.26
7193.45,3.3
7195.45,3.3
7197.45,3.3
7199.45,3.3
7201.45,3.3
7203.45,3.3
7205.45,3.3
7207.45,3.3
7210.45,3.3
7212.45,3.3
7214.45,3.3
7216.45,3.3
7217.45,3.3
7219.45,3.3
7221.45,3.29
7223.45,3.3
7225.45,3.3
7227.45,3.29
7229.45,3.05
7231.45,2.52
7233.45,2.42
7235.45,2.24
7237.45,2.18
7239.45,2.0
7241.45,1.85
7243.45,1.94
7245.45,1.87
7247.45,1.78
7249.45,1.52
7252.45,1.49
7254.45,1.57
7256.45,1.41
7258.45,1.53
7260.45,1.44
7261.45,1.32
7263.45,1.38
7265.45,1.37
7267.45,1.33
7269.45,1.3
7271.45,1.31
7273.45,1.45
7275.45,1.43
7277.45,1.4
7279.45,1.34
7281.45,1.24
7283.45,1.31
7285.45,1.35
7287.45,1.35
7289.45,1.07
7291.45,1.06
7294.45,1.13
7296.45,1.05
7298.45,1.14
7300.45,1.03
7302.45,0.8
7304.45,0.78
7305.45,0.8
7307.45,0.86
7309.45,0.92
7311.45,0.96
7313.45,1.05
7315.45,1.13
7317.45,1.1
7319.45,1.02
7321.45,0.94
7323.45,1.05
7325.45,1.08
7327.45,1.13
7329.45,1.14
7331.45,1.11
7333.45,1.22
7335.45,1.29
7338.45,1.4
7340.45,1.34
7342.45,1.19
7344.45,1.28
7346.45,1.34
7348.45,1.42
7349.45,1.45
7351.45,1.44
7353.45,1.52
7355.45,1.53
7357.45,1.47
7359.45,1.37
7361.45,1.25
7363.45,1.25
7365.45,1.29
7367.45,1.28
7369.45,1.28
7371.45,1.32
7373.45,1.47
7375.45,1.48
7377.45,1.48
7380.45,1.41
7382.45,1.3
7384.45,1.36
7386.45,1.43
7388.45,1.38
7390.45,1.54
7391.45,1.52
7393.45,1.67
7395.45,1.75
7397.45,1.59
7399.45,1.53
7401.45,1.51
7403.45,1.63
7405.45,1.7
7407.45,1.75
7409.45,1.8
7411.45,1.74
7413.45,1.87
7415.45,1.95
7417.45,1.83
7419.45,1.7
7422.45,1.56
7424.45,1.59
7426.45,1.69
7428.45,1.68
7430.45,1.64
7432.45,1.64
7434.45,1.75
7435.45,1.78
7437.45,1.82
7439.45,1.82
7441.45,1.68
7443.45,1.74
7445.45,1.79
7447.45,1.83
7449.45,1.8
7451.45,1.69
7453.45,1.67
7455.45,1.66
7457.45,1.67
7459.45,1.65
7461.45,1.63
7463.45,1.73
7466.45,1.76
7468.45,1.92
7470.45,2.25
7472.45,2.07
7474.45,2.04
7476.45,2.0
7478.45,1.89
7479.45,1.75
7481.45,1.69
7483.45,1.76
7485.45,1.69
7487.45,1.67
7489.45,1.65
7491.45,1.56
7493.45,1.65
7495.45,1.61
7497.45,1.59
7499.45,1.52
7501.45,1.41
7503.45,1.5
7505.45,1.55
7508.45,1.55
7510.45,1.46
7512.45,1.42
7514.45,1.46
7516.45,1.42
7518.45,1.38
7520.45,1.31
7522.45,1.22
7523.45,1.28
7525.45,1.25
7527.45,1.25
7529.45,1.3
7531.45,1.27
7533.45,1.28
7535.45,1.26
7537.45,1.22
7539.45,1.18
7541.45,1.18
7543.45,1.25
7545.45,1.04
7547.45,0.89
7550.45,0.67
7552.45,0.27
7554.45,0.0
7556.45,0.0
7558.45,0.12
7560.45,0.13
7562.45,0.19
7564.45,0.25
7566.45,0.44
7567.45,0.6
7569.45,0.75
7571.45,0.83
7573.45,1.01
7575.45,1.01
7577.45,1.02
7579.45,1.11
7581.45,1.08
7583.45,1.13
7585.45,1.21
7587.45,1.24
7589.45,1.27
7591.45,1.32
7594.45,1.42
7596.45,1.46
7598.45,1.51
7600.45,1.46
7602.45,1.45
7604.45,1.54
7606.45,1.58
7608.45,1.62
7609.45,1.63
7611.45,1.68
7613.45,1.79
7615.45,1.9
7617.45,1.85
7619.45,1.84
7621.45,1.87
7623.45,2.01
7625.45,2.0
7627.45,2.0
7629.45,1.9
7631.45,1.86
7633.45,1.9
7636.45,1.84
7638.45,1.78
7640.45,1.69
7642.45,1.65
7644.45,1.69
7646.45,1.7
7648.45,1.74
7650.45,1.72
7652.45,1.72
7653.45,1.59
7655.45,1.39
7657.45,1.33
7659.45,1.26
7661.45,1.15
7663.45,1.12
7665.45,1.15
7667.45,1.24
7669.45,1.2
7671.45,1.18
7673.45,1.3
7675.45,1.31
7678.45,1.35
7680.45,1.29
7682.45,1.28
7684.45,1.36
7686.45,1.36
7688.45,1.42
7690.45,1.58
7692.45,1.67
7694.45,1.8
7696.45,1.66
7697.45,1.64
7699.45,1.51
7701.45,1.49
7703.45,1.51
7705.45,1.5
7707.45,1.57
7709.45,1.6
7711.45,1.59
7713.45,1.67
7715.45,1.7
7717.45,1.63
7719.45,1.55
7722.45,1.5
7724.45,1.55
7726.45,1.61
7728.45,1.63
7730.45,1.56
7732.45,1.57
7734.45,1.63
7736.45,1.52
7738.45,1.47
7740.45,1.45
7741.45,1.41
7743.45,1.47
7745.45,1.49
7747.45,1.47
7749.45,1.43
7751.45,1.48
7753.45,1.48
7755.45,1.42
7757.45,1.45
7759.45,1.36
7761.45,1.35
7764.45,1.41
7766.45,1.42
7768.45,1.4
7770.45,1.41
7772.45,1.42
7774.45,1.52
7776.45,1.57
7778.45,1.56
7780.45,1.46
7782.45,1.51
7784.45,1.54
7785.45,1.53
7787.45,1.56
7789.45,1.57
7791.45,1.59
7793.45,1.62
7795.45,1.62
7797.45,1.57
7799.45,1.49
7801.45,1.5
7803.45,1.52
7806.45,1.53
7808.45,1.61
7810.45,1.55
7812.45,1.51
7814.45,1.56
7816.45,1.52
7818.45,1.48
7820.45,1.45
7822.45,1.4
7824.45,1.5
7826.45,1.51
7827.45,1.54
7829.45,1.53
7831.45,1.53
7833.45,1.55
7835.45,1.58
7837.45,1.52
7839.45,1.54
7841.45,1.52
7843.45,1.56
7845.45,1.56
7847.45,1.55
7850.45,1.55
7852.45,1.61
7854.45,1.56
7856.45,1.6
7858.45,1.59
7860.45,1.59
7862.45,1.58
7864.45,1.62
7866.45,1.58
7868.45,1.62
7870.45,1.53
7871.45,1.61
7873.45,1.72
7875.45,1.81
7877.45,1.76
7879.45,1.7
7881.45,1.84
7883.45,1.81
7885.45,1.78
7887.45,1.71
7889.45,1.6
7892.45,1.71
7894.45,1.71
7896.45,1.58
7898.45,1.66
7900.45,1.56
7902.45,1.57
7904.45,1.72
7906.45,1.73
7908.45,1.8
7910.45,1.71
7912.45,1.75
7914.45,1.73
7915.45,1.66
7917.45,1.55
7919.45,1.32
7921.45,1.43
7923.45,1.55
7925.45,1.52
7927.45,1.36
7929.45,1.28
7931.45,1.5
7934.45,1.4
7936.45,1.16
7938.45,1.17
7940.45,1.1
7942.45,1.12
7944.45,1.18
7946.45,1.04
7948.45,1.1
7950.45,0.82
7952.45,1.06
7954.45,1.17
7956.45,1.1
7957.45,0.98
7959.45,0.95
7961.45,1.0
7963.45,1.11
7965.45,1.04
7967.45,1.2
7969.45,1.17
7971.45,1.15
7973.45,1.4
7975.45,1.5
7978.45,1.4
7980.45,1.27
7982.45,1.37
7984.45,1.31
7986.45,1.24
7988.45,1.17
7990.45,1.55
7992.45,1.83
7994.45,1.88
7996.45,1.96
7998.45,1.94
8000.45,1.74
8002.45,1.71
8003.45,1.59
8005.45,1.59
8007.45,1.58
8009.45,1.45
8011.45,1.35
8013.45,1.42
8015.45,1.14
8017.45,1.16
8020.45,0.9
8022.45,1.09
8024.45,1.08
8026.45,1.15
8028.45,1.12
8030.45,1.09
8032.45,1.17
8034.45,1.01
8036.45,1.07
8038.45,0.91
8040.45,0.81
8042.45,0.88
8044.45,0.76
8045.45,0.71
8047.45,0.79
8049.45,0.71
8051.45,0.55
8053.45,0.74
8055.45,0.85
8057.45,1.0
8059.45,0.76
8062.45,0.66
8064.45,0.67
8066.45,0.81
8068.45,0.91
8070.45,0.93
8072.45,0.95
8074.45,1.04
8076.45,1.06
8078.45,1.02
8080.45,0.86
8082.45,0.79
8084.45,0.84
8086.45,0.97
8088.45,1.02
8089.45,1.03
8091.45,1.16
8093.45,1.2
8095.45,1.28
8097.45,1.22
8099.45,1.06
8101.45,0.97
8103.45,0.85
8106.45,0.85
8108.45,1.28
8110.45,1.29
8112.45,1.33
8114.45,1.29
8116.45,1.26
8118.45,1.36
8120.45,1.34
8122.45,1.42
8124.45,1.54
8126.45,1.5
8128.45,1.55
8130.45,1.54
8131.45,1.26
8133.45,1.45
8135.45,1.65
8137.45,1.65
8139.45,1.59
8141.45,1.74
8143.45,1.71
8145.45,1.79
8148.45,1.92
8150.45,1.87
8152.45,1.95
8154.45,1.92
8156.45,2.0
8158.45,2.01
8160.45,1.95
8162.45,1.94
8164.45,1.99
8166.45,2.07
8168.45,2.06
8170.45,1.9
8172.45,2.06
8174.45,2.31
8175.45,2.21
8177.45,2.0
8179.45,1.97
8181.45,2.19
8183.45,2.15
8185.45,2.11
8187.45,2.12
8190.45,2.15
8192.45,2.2
8194.45,2.11
8196.45,2.08
8198.45,2.09
8200.45,1.99
8202.45,2.04
8204.45,2.08
8206.45,2.25
8208.45,2.37
8210.45,2.36
8212.45,2.43
8214.45,2.44
8216.45,2.33
8217.45,2.42
8219.45,2.21
8221.45,2.3
8223.45,2.34
8225.45,2.37
8227.45,2.26
8229.45,2.23
8231.45,2.31
8234.45,2.25
8236.45,2.15
8238.45,2.16
8240.45,2.09
8242.45,2.06
8244.45,2.09
8246.45,2.11
8248.45,2.08
8250.45,2.01
8252.45,1.96
8254.45,1.9
8256.45,1.87
8258.45,1.82
8260.45,1.73
8261.45,1.73
8263.45,1.81
8265.45,1.77
8267.45,1.75
8269.45,1.65
8271.45,1.7
8273.45,1.78
8276.45,1.72
8278.45,1.62
8280.45,1.51
8282.45,1.5
8284.45,1.53
8286.45,1.42
8288.45,1.45
8290.45,1.45
8292.45,1.49
8294.45,1.49
8296.45,1.41
8298.45,1.39
8300.45,1.23
8302.45,1.3
8304.45,1.35
8305.45,1.4
8307.45,1.37
8309.45,1.37
8311.45,1.53
8313.45,1.6
8315.45,1.61
8318.45,1.57
8320.45,1.43
8322.45,1.46
8324.45,1.47
8326.45,1.44
8328.45,1.43
8330.45,1.32
8332.45,1.34
8334.45,1.33
8336.45,1.21
8338.45,1.2
8340.45,1.07
8342.45,1.16
8344.45,1.17
8346.45,1.09
8348.45,1.13
8349.45,1.07
8351.45,1.14
8353.45,1.13
8355.45,1.15
8357.45,1.17
8359.45,1.11
8362.45,1.12
8364.45,1.17
8366.45,1.24
8368.45,1.28
8370.45,1.28
8372.45,1.36
8374.45,1.41
8376.45,1.38
8378.45,1.34
8380.45,1.25
8382.45,1.32
8384.45,1.36
8386.45,1.39
8388.45,1.41
8390.45,1.39
8391.45,1.58
8393.45,1.61
8395.45,1.59
8397.45,1.49
8399.45,1.34
8401.45,1.34
8404.45,1.37
8406.45,1.45
8408.45,1.48
8410.45,1.46
8412.45,1.47
8414.45,1.49
8416.45,1.48
8418.45,1.38
8420.45,1.31
8422.45,1.37
8424.45,1.42
8426.45,1.44
8428.45,1.49
8430.45,1.46
8432.45,1.53
8433.45,1.53
8435.45,1.5
8437.45,1.45
8439.45,1.35
8441.45,1.41
8443.45,1.41
8446.45,1.5
8448.45,1.53
8450.45,1.49
8452.45,1.52
8454.45,1.52
8456.45,1.44
8458.45,1.45
8460.45,1.34
8462.45,1.37
8464.45,1.45
8466.45,1.45
8468.45,1.47
8470.45,1.43
8472.45,1.5
8474.45,0.73
8476.45,0.15
8477.45,0.0
8479.45,0.0
8481.45,0.03
8483.45,0.0
8485.45,0.0
8487.45,0.0
8490.45,0.12
8492.45,0.24
8494.45,0.21
8496.45,0.13
8498.45,0.0
8500.45,0.0
8502.45,0.0
8504.45,0.0
8506.45,0.0
8508.45,0.0
8510.45,0.0
8512.45,0.0
8514.45,0.0
8516.45,0.0
8518.45,0.0
8519.45,0.0
8521.45,0.0
8523.45,0.0
8525.45,0.0
8527.45,0.0
8529.45,0.0
8532.45,0.17
8534.45,0.24
8536.45,0.31
8538.45,0.47
8540.45,0.54
8542.45,0.77
8544.45,0.9
8546.45,1.06
8548.45,1.18
8550.45,1.13
8552.45,1.28
8554.45,1.25
8556.45,1.27
8558.45,1.36
8560.45,1.32
8562.45,1.44
8563.45,1.51
8565.45,1.48
8567.45,1.57
8569.45,1.54
8571.45,1.63
8574.45,1.64
8576.45,1.59
8578.45,1.62
8580.45,1.45
8582.45,1.45
8584.45,1.46
8586.45,1.5
8588.45,1.66
8590.45,1.68
8592.45,1.74
8594.45,1.77
8596.45,1.8
8598.45,1.71
8600.45,1.7
8602.45,1.8
8604.45,1.81
8605.45,1.95
8607.45,2.01
8609.45,1.94
8611.45,2.04
8613.45,2.14
8615.45,2.13
8618.45,2.09
8620.45,1.96
8622.45,2.04
8624.45,2.06
8626.45,2.05
8628.45,1.98
8630.45,1.98
8632.45,2.11
8634.45,2.14
8636.45,2.14
8638.45,2.12
8640.45,2.08
8642.45,2.17
8644.45,2.23
8646.45,2.23
8648.45,2.27
8649.45,2.18
8651.45,2.21
8653.45,2.23
8655.45,2.25
8657.45,2.27
8660.45,2.15
8662.45,2.21
8664.45,2.19
8666.45,2.18
8668.45,2.21
8670.45,2.18
8672.45,2.23
8674.45,2.3
8676.45,2.34
8678.45,2.32
8680.45,2.29
8682.45,2.39
8684.45,2.34
8686.45,2.37
8688.45,2.53
8690.45,2.6
8692.45,2.77
8693.45,2.69
8695.45,2.58
8697.45,2.47
8699.45,2.3
8702.45,2.3
8704.45,2.47
8706.45,2.6
8708.45,2.75
8710.45,2.77
8712.45,2.84
8714.45,2.78
8716.45,2.76
8718.45,2.7
8720.45,2.53
8722.45,2.53
8724.45,2.52
8726.45,2.5
8728.45,2.45
8730.45,2.32
8732.45,2.34
8734.45,2.34
8735.45,2.23
8737.45,2.17
8739.45,2.08
8741.45,2.1
8743.45,2.08
8746.45,2.08
8748.45,2.1
8750.45,1.99
8752.45,1.93
8754.45,1.93
8756.45,1.94
8758.45,1.83
8760.45,1.69
8762.45,1.74
8764.45,1.68
8766.45,1.68
8768.45,1.62
8770.45,1.45
8772.45,1.49
8774.45,1.51
8776.45,1.41
8778.45,1.36
8779.45,1.25
8781.45,1.33
8783.45,1.35
8785.45,1.37
8788.45,1.35
8790.45,1.32
8792.45,1.39
8794.45,1.34
8796.45,1.32
8798.45,1.3
8800.45,1.2
8802.45,1.25
8804.45,1.24
8806.45,1.26
8808.45,1.32
8810.45,1.35
8812.45,1.45
8814.45,1.44
8816.45,1.43
8818.45,1.34
8820.45,1.22
8822.45,1.29
8823.45,1.34
8825.45,1.33
8827.45,1.39
8830.45,1.36
8832.45,1.45
8834.45,1.46
8836.45,1.42
8838.45,1.4
8840.45,1.31
8842.45,1.4
8844.45,1.36
8846.45,1.37
8848.45,1.42
8850.45,1.4
8852.45,1.5
8854.45,1.48
8856.45,1.45
8858.45,1.39
8860.45,1.31
8862.45,1.33
8864.45,1.36
8866.45,1.35
8867.45,1.31
8869.45,1.3
8871.45,1.41
8874.45,1.44
8876.45,1.41
8878.45,1.33
8880.45,1.23
8882.45,1.3
8884.45,1.29
8886.45,1.31
8888.45,1.36
8890.45,1.36
8892.45,1.5
8894.45,1.47
8896.45,1.5
8898.45,1.45
8900.45,1.37
8902.45,1.38
8904.45,1.37
8906.45,1.4
8908.45,1.46
8910.45,1.44
8911.45,1.5
8913.45,1.53
8916.45,1.5
8918.45,1.43
8920.45,1.37
8922.45,1.44
8924.45,1.46
8926.45,1.47
8928.45,1.42
8930.45,1.39
8932.45,1.51
8934.45,1.51
8936.45,1.44
8938.45,1.46
8940.45,1.53
8942.45,1.55
8944.45,1.64
8946.45,1.69
8948.45,1.68
8950.45,1.66
8952.45,1.68
8954.45,1.73
8955.45,1.89
8958.45,1.78
8960.45,1.66
8962.45,1.75
8964.45,1.67
8966.45,1.6
8968.45,1.59
8970.45,1.51
8972.45,1.53
8974.45,1.53
8976.45,1.52
8978.45,1.46
8980.45,1.4
8982.45,1.43
8984.45,1.37
8986.45,1.39
8988.45,1.44
8990.45,1.46
8992.45,1.53
8994.45,1.55
8996.45,1.51
8997.45,1.42
8999.45,1.38
9002.45,1.39
9004.45,1.41
9006.45,1.44
9008.45,1.45
9010.45,1.44
9012.45,1.52
9014.45,1.45
9016.45,1.48
9018.45,1.4
9020.45,1.18
9022.45,1.3
9024.45,1.3
9026.45,1.22
9028.45,1.31
9030.45,1.34
9032.45,1.37
9034.45,1.38
9036.45,1.42
9038.45,1.33
9040.45,1.25
9041.45,1.34
9044.45,1.32
9046.45,1.3
9048.45,1.27
9050.45,1.21
9052.45,1.34
9054.45,1.37
9056.45,1.44
9058.45,1.38
9060.45,1.32
9062.45,1.35
9064.45,1.34
9066.45,1.47
9068.45,1.43
9070.45,1.41
9072.45,1.46
9074.45,1.4
9076.45,1.48
9078.45,1.37
9080.45,1.3
9082.45,1.44
9084.45,1.41
9086.45,1.38
9088.45,1.4
9090.45,1.4
9092.45,1.5
9094.45,1.49
9096.45,1.53
9098.45,1.41
9100.45,1.34
9102.45,1.35
9104.45,1.16
9106.45,1.3
9108.45,1.33
9110.45,1.54
9112.45,1.63
9114.45,1.53
9116.45,1.31
9118.45,1.33
9120.45,1.41
9122.45,1.59
9124.45,1.62
9126.45,1.52
9129.45,1.51
9130.45,1.56
9132.45,1.66
9134.45,1.62
9136.45,1.63
9138.45,1.58
9140.45,1.56
9142.45,1.33
9144.45,1.77
9146.45,1.79
9148.45,1.81
9150.45,1.68
9152.45,1.82
9154.45,1.68
9156.45,1.56
9158.45,1.36
9160.45,1.24
9162.45,1.58
9164.45,1.49
9166.45,1.42
9168.45,1.22
9170.45,1.12
9172.45,1.17
9174.45,1.46
9176.45,1.87
9178.45,1.57
9180.45,1.27
9182.45,1.41
9184.45,1.61
9186.45,1.53
9188.45,1.62
9190.45,1.55
9192.45,1.56
9194.45,1.56
9196.45,1.51
9198.45,1.18
9200.45,1.05
9202.45,1.24
9204.45,1.36
9206.45,1.21
9208.45,1.32
9210.45,1.29
9212.45,1.34
9215.45,1.35
9217.45,1.28
9218.45,1.29
9220.45,1.34
9222.45,1.32
9224.45,1.23
9226.45,1.2
9228.45,1.15
9230.45,1.14
9232.45,1.14
9234.45,1.13
9236.45,0.9
9238.45,0.99
9240.45,1.09
9242.45,1.1
9244.45,1.05
9246.45,1.08
9248.45,1.03
9250.45,1.23
9252.45,1.19
9254.45,1.17
9257.45,1.09
9259.45,0.93
9260.45,0.96
9262.45,1.15
9264.45,1.22
9266.45,1.23
9268.45,1.21
9270.45,1.25
9272.45,1.41
9274.45,1.24
9276.45,1.31
9278.45,1.3
9280.45,1.16
9282.45,1.31
9284.45,1.36
9286.45,1.3
9288.45,1.49
9290.45,1.51
9292.45,1.77
9294.45,1.48
9296.45,1.66
9298.45,1.65
9301.45,1.54
9303.45,1.57
9304.45,1.55
9306.45,1.41
9308.45,1.57
9310.45,1.63
9312.45,1.58
9314.45,1.51
9316.45,1.57
9318.45,1.46
9320.45,1.43
9322.45,1.58
9324.45,1.73
9326.45,1.75
9328.45,1.61
9330.45,1.81
9332.45,1.89
9334.45,1.62
9336.45,1.67
9338.45,1.62
9340.45,1.52
9343.45,1.54
9345.45,1.47
9347.45,1.53
9348.45,1.37
9350.45,1.43
9352.45,1.39
9354.45,1.19
9356.45,1.25
9358.45,1.27
9360.45,1.21
9362.45,1.28
9364.45,1.24
9366.45,1.3
9368.45,1.22
9370.45,1.34
9372.45,1.41
9374.45,1.38
9376.45,1.41
9378.45,1.39
9380.45,1.44
9382.45,1.46
9385.45,1.47
9387.45,1.51
9389.45,1.65
9391.45,1.81
9392.45,1.73
9394.45,1.85
9396.45,1.95
9398.45,1.86
9400.45,1.88
9402.45,1.91
9404.45,1.96
9406.45,1.91
9408.45,1.94
9410.45,2.04
9412.45,2.14
9414.45,2.16
9416.45,1.94
9418.45,1.9
9420.45,1.97
9422.45,2.13
9424.45,2.28
9426.45,2.24
9429.45,2.17
9431.45,2.29
9433.45,2.32
9435.45,2.29
9436.45,2.31
9438.45,2.23
9440.45,2.3
9442.45,2.36
9444.45,2.43
9446.45,2.38
9448.45,2.36
9450.45,2.38
9452.45,2.23
9454.45,2.19
9456.45,2.17
9458.45,2.0
9460.45,1.92
9462.45,1.94
9464.45,1.88
9466.45,1.95
9468.45,1.76
9471.45,1.89
9473.45,1.89
9475.45,1.88
9477.45,1.82
9479.45,1.79
9480.45,1.85
9482.45,1.81
9484.45,1.81
9486.45,1.82
9488.45,1.85
9490.45,1.85
9492.45,1.85
9494.45,1.74
9496.45,1.68
9498.45,1.5
9500.45,1.47
9502.45,1.47
9504.45,1.52
9506.45,1.55
9508.45,1.52
9510.45,1.54
9513.45,1.58
9515.45,1.52
9517.45,1.54
9519.45,1.4
9521.45,1.44
9523.45,1.48
9524.45,1.47
9526.45,1.38
9528.45,1.43
9530.45,1.48
9532.45,1.57
9534.45,1.55
9536.45,1.57
9538.45,1.49
9540.45,1.48
9542.45,1.52
9544.45,1.52
9546.45,1.55
9548.45,1.59
9550.45,1.6
9552.45,1.56
9554.45,1.55
9557.45,1.49
9559.45,1.34
9561.45,1.38
9563.45,1.34
9565.45,1.22
9567.45,1.19
9568.45,0.77
9570.45,0.68
9572.45,0.78
9574.45,0.8
9576.45,0.74
9578.45,0.71
9580.45,0.77
9582.45,0.82
9584.45,0.93
9586.45,0.92
9588.45,0.87
9590.45,0.95
9592.45,0.92
9594.45,0.96
9596.45,0.97
9599.45,0.93
9601.45,0.97
9603.45,0.97
9605.45,0.96
9607.45,1.02
9609.45,1.03
9611.45,1.1
9612.45,1.07
9614.45,1.07
9616.45,1.15
9618.45,1.09
9620.45,1.16
9622.45,1.19
9624.45,1.19
9626.45,1.17
9628.45,1.14
9630.45,1.27
9632.45,1.29
9634.45,1.32
9636.45,1.25
9638.45,1.15
9641.45,1.2
9643.45,1.21
9645.45,1.21
9647.45,1.12
9649.45,1.13
9651.45,1.22
9653.45,1.22
9654.45,1.22
9656.45,1.21
9658.45,1.04
9660.45,1.07
9662.45,1.16
9664.45,1.22
9666.45,1.2
9668.45,1.25
9670.45,1.36
9672.45,1.4
9674.45,1.38
9676.45,1.4
9678.45,1.29
9680.45,1.35
9682.45,1.36
9685.45,1.35
9687.45,1.36
9689.45,1.36
9691.45,1.44
9693.45,1.48
9695.45,1.5
9697.45,1.45
9698.45,1.3
9700.45,1.4
9702.45,1.42
9704.45,1.43
9706.45,1.48
9708.45,1.42
9710.45,1.42
9712.45,1.46
9714.45,1.42
9716.45,1.37
9718.45,1.25
9720.45,1.28
9722.45,1.28
9724.45,1.35
9727.45,1.39
9729.45,1.35
9731.45,1.43
9733.45,1.44
9735.45,1.42
9737.45,1.4
9739.45,1.31
9741.45,1.41
9742.45,1.41
9744.45,1.47
9746.45,1.48
9748.45,1.45
9750.45,1.57
9752.45,1.48
9754.45,1.46
9756.45,1.45
9758.45,1.31
9760.45,1.33
9762.45,1.36
9764.45,1.32
9766.45,1.34
9769.45,1.3
9771.45,1.32
9773.45,1.34
9775.45,1.39
9777.45,1.36
9779.45,1.2
9781.45,1.3
9783.45,1.37
9785.45,1.35
9786.45,1.4
9788.45,1.37
9790.45,1.39
9792.45,1.46
9794.45,1.39
9796.45,1.38
9798.45,1.3
9800.45,1.34
9802.45,1.33
9804.45,1.4
9806.45,1.47
9808.45,1.4
9810.45,1.5
9813.45,1.58
9815.45,1.54
9817.45,1.52
9819.45,1.4
9821.45,1.44
9823.45,1.44
9825.45,1.46
9827.45,1.47
9828.45,1.45
9830.45,1.56
9832.45,1.53
9834.45,1.51
9836.45,1.5
9838.45,1.4
9840.45,1.5
9842.45,1.52
9844.45,1.43
9846.45,1.44
9848.45,1.4
9850.45,1.5
9852.45,1.53
9855.45,1.6
9857.45,1.57
9859.45,1.45
9861.45,1.49
9863.45,1.53
9865.45,1.54
9867.45,1.57
9869.45,1.52
9871.45,1.53
9872.45,1.53
9874.45,1.44
9876.45,1.35
9878.45,1.3
9880.45,1.39
9882.45,1.37
9884.45,1.4
9886.45,1.48
9888.45,1.46
9890.45,1.58
9892.45,1.58
9894.45,1.55
9897.45,1.54
9899.45,1.42
9901.45,1.45
9903.45,1.46
9905.45,1.6
9907.45,1.61
9909.45,1.64
9911.45,1.73
9913.45,1.65
9915.45,1.56
9916.45,1.47
9918.45,1.32
9920.45,1.4
9922.45,1.44
9924.45,1.41
9926.45,1.45
9928.45,1.41
9930.45,1.47
9932.45,1.46
9934.45,1.43
9936.45,1.33
9938.45,1.2
9941.45,1.27
9943.45,1.33
9945.45,1.33
9947.45,1.36
9949.45,1.31
9951.45,1.37
9953.45,1.4
9955.45,1.38
9957.45,1.32
9959.45,1.25
9960.45,1.32
9962.45,1.28
9964.45,1.4
9966.45,1.39
9968.45,1.34
9970.45,1.45
9972.45,1.47
9974.45,1.4
9976.45,1.37
9978.45,1.33
9980.45,1.42
9983.45,1.28
9985.45,1.39
9987.45,1.34
9989.45,1.44
9991.45,1.61
9993.45,1.59
9995.45,1.55
9997.45,1.54
9999.45,1.4
10001.45,1.46
10003.45,1.46
10004.45,1.46
10006.45,1.6
10008.45,1.58
10010.45,1.65
10012.45,1.67
10014.45,1.64
10016.45,1.55
10018.45,1.42
10020.45,1.52
10022.45,1.49
10025.45,1.48
10027.45,1.45
10029.45,1.47
10031.45,1.57
10033.45,1.59
10035.45,1.64
10037.45,1.69
10039.45,1.55
10041.45,1.56
10043.45,1.59
10045.45,1.64
10046.45,1.54
10048.45,1.72
10050.45,1.75
10052.45,1.76
10054.45,1.77
10056.45,1.55
10058.45,1.24
10060.45,1.35
10062.45,1.35
10064.45,1.49
10066.45,1.46
10069.45,1.38
10071.45,1.37
10073.45,1.47
10075.45,1.3
10077.45,1.25
10079.45,1.2
10081.45,1.11
10083.45,1.02
10085.45,0.95
10087.45,0.94
10088.45,0.79
10090.45,0.83
10092.45,0.78
10094.45,0.95
10096.45,0.71
10098.45,0.81
10100.45,0.78
10102.45,0.84
10104.45,0.83
10106.45,0.67
10108.45,0.53
10111.45,0.62
10113.45,0.81
10115.45,0.59
10117.45,0.54
10119.45,0.62
10121.45,0.54
10123.45,0.5
10125.45,0.62
10127.45,0.67
10129.45,0.71
10131.45,0.74
10132.45,0.72
10134.45,0.76
10136.45,0.62
10138.45,0.61
10140.45,0.59
10142.45,0.72
10144.45,0.83
10146.45,0.74
10148.45,0.86
10150.45,0.97
10153.45,1.16
10155.45,1.24
10157.45,0.9
10159.45,1.0
10161.45,1.01
10163.45,1.25
10165.45,1.02
10167.45,1.17
10169.45,1.16
10171.45,1.31
10173.45,1.27
10174.45,1.25
10176.45,1.16
10178.45,0.93
10180.45,0.66
10182.45,0.53
10184.45,0.92
10186.45,0.97
10188.45,0.68
10190.45,0.84
10192.45,0.8
10194.45,0.91
10197.45,0.84
10199.45,0.76
10201.45,0.81
10203.45,0.75
10205.45,0.77
10207.45,1.01
10209.45,1.25
10211.45,1.38
10213.45,1.29
10215.45,1.34
10216.45,1.27
10218.45,1.41
10220.45,1.43
10222.45,1.37
10224.45,1.4
10226.45,1.67
10228.45,1.74
10230.45,1.81
10232.45,1.96
10234.45,1.84
10236.45,2.01
10239.45,1.81
10241.45,2.06
10243.45,1.99
10245.45,1.78
10247.45,1.9
10249.45,2.05
10251.45,2.06
10253.45,2.1
10255.45,2.0
10257.45,1.99
10259.45,1.73
10260.45,1.86
10262.45,2.02
10264.45,1.95
10266.45,1.95
10268.45,1.85
10270.45,2.11
10272.45,2.07
10274.45,1.81
10276.45,1.74
10278.45,1.97
10281.45,2.31
10283.45,2.33
10285.45,2.35
10287.45,2.3
10289.45,2.34
10291.45,2.38
10293.45,2.26
10295.45,2.22
10297.45,2.15
10299.45,2.32
10301.45,2.33
10302.45,2.27
10304.45,2.37
10306.45,2.46
10308.45,2.46
10310.45,2.34
10312.45,2.37
10314.45,2.26
10316.45,2.21
10318.45,2.24
10320.45,2.28
10322.45,2.25
10325.45,2.34
10327.45,2.38
10329.45,2.36
10331.45,2.56
10333.45,2.45
10335.45,2.5
10337.45,2.39
10339.45,2.21
10341.45,2.16
10343.45,2.13
10344.45,2.22
10346.45,2.19
10348.45,2.25
10350.45,2.2
10352.45,2.1
10354.45,2.07
10356.45,2.05
10358.45,1.94
10360.45,1.9
10362.45,1.93
10364.45,1.93
10367.45,1.82
10369.45,1.75
10371.45,1.82
10373.45,1.85
10375.45,1.71
10377.45,1.59
10379.45,1.67
10381.45,1.75
10383.45,1.72
10385.45,1.62
10387.45,1.66
10388.45,1.65
10390.45,1.71
10392.45,1.66
10394.45,1.69
10396.45,1.65
10398.45,1.54
10400.45,1.71
10402.45,1.62
10404.45,1.71
10406.45,1.62
10409.45,1.66
10411.45,1.7
10413.45,1.71
10415.45,1.55
10417.45,1.57
10419.45,1.61
10421.45,1.64
10423.45,1.67
10425.45,1.64
10427.45,1.66
10429.45,1.71
10430.45,1.8
10432.45,1.74
10434.45,1.63
10436.45,1.5
10438.45,1.43
10440.45,1.44
10442.45,1.41
10444.45,1.45
10446.45,1.42
10448.45,1.42
10450.45,1.46
10453.45,1.49
10455.45,1.5
10457.45,1.48
10459.45,1.41
10461.45,1.39
10463.45,1.45
10465.45,1.46
10467.45,1.38
10469.45,1.43
10471.45,1.53
10472.45,1.42
10474.45,1.41
10476.45,1.38
10478.45,1.37
10480.45,1.41
10482.45,1.4
10484.45,1.33
10486.45,1.3
10488.45,1.29
10490.45,1.3
10492.45,1.32
10495.45,1.25
10497.45,1.1
10499.45,1.11
10501.45,1.17
10503.45,1.18
10505.45,1.27
10507.45,1.33
10509.45,1.33
10511.45,1.39
10513.45,1.38
10515.45,1.44
10516.45,1.4
10518.45,1.42
10520.45,1.43
10522.45,1.4
10524.45,1.56
10526.45,1.57
10528.45,1.56
10530.45,1.65
10532.45,1.57
10534.45,1.48
10537.45,1.42
10539.45,1.41
10541.45,1.46
10543.45,1.5
10545.45,1.48
10547.45,1.46
10549.45,1.52
10551.45,1.63
10553.45,1.57
10555.45,1.6
10557.45,1.51
10558.45,1.46
10560.45,1.51
10562.45,1.61
10564.45,1.5
10566.45,1.44
10568.45,1.45
10570.45,1.6
10572.45,1.64
10574.45,1.59
10576.45,1.42
10578.45,1.41
10581.45,1.49
10583.45,1.49
10585.45,1.53
10587.45,1.47
10589.45,1.47
10591.45,1.52
10593.45,1.53
10595.45,1.53
10597.45,1.3
10599.45,1.28
10600.45,1.3
10602.45,1.27
10604.45,1.34
10606.45,1.36
10608.45,1.36
10610.45,1.35
10612.45,1.33
10614.45,1.3
10616.45,1.25
10618.45,1.23
10620.45,1.23
10623.45,1.21
10625.45,1.28
10627.45,1.23
10629.45,1.33
10631.45,1.34
10633.45,1.21
10635.45,1.13
10637.45,1.01
10639.45,1.05
10641.45,1.15
10643.45,1.21
10644.45,1.3
10646.45,1.29
10648.45,1.34
10650.45,1.33
10652.45,1.32
10654.45,1.3
10656.45,1.1
10658.45,1.1
10660.45,1.19
10662.45,1.2
10665.45,1.26
10667.45,1.25
10669.45,1.3
10671.45,1.36
10673.45,1.41
10675.45,1.34
10677.45,1.25
10679.45,1.31
10681.45,1.32
10683.45,1.27
10685.45,1.32
10686.45,1.32
10688.45,1.39
10690.45,1.48
10692.45,1.52
10694.45,1.46
10696.45,1.38
10698.45,1.4
10700.45,1.4
10702.45,1.4
10704.45,1.46
10706.45,1.43
10709.45,1.51
10711.45,1.55
10713.45,1.5
10715.45,1.49
10717.45,1.45
10719.45,1.42
10721.45,1.48
10723.45,1.59
10725.45,1.59
10727.45,1.55
10728.45,1.65
10730.45,1.68
10732.45,1.68
10734.45,1.71
10736.45,1.6
10738.45,1.59
10740.45,1.64
10742.45,1.63
10744.45,1.64
10746.45,1.64
10748.45,1.64
10751.45,1.61
10753.45,1.62
10755.45,1.61
10757.45,1.49
10759.45,1.53
10761.45,1.52
10763.45,1.57
10765.45,1.64
10767.45,1.59
10769.45,1.59
10771.45,1.61
10772.45,1.6
10774.45,1.55
10776.45,1.42
10778.45,1.44
10780.45,1.47
10782.45,1.5
10784.45,1.53
10786.45,1.47
10788.45,1.57
10790.45,1.59
10793.45,1.54
10795.45,1.47
10797.45,1.44
10799.45,1.47
10801.45,1.5
10803.45,1.51
10805.45,1.49
10807.45,1.48
10809.45,1.55
10811.45,1.57
10813.45,1.56
10814.45,1.49
10816.45,1.4
10818.45,1.41
10820.45,1.45
10822.45,1.47
10824.45,1.47
10826.45,1.49
10828.45,1.53
10830.45,1.51
10832.45,1.48
10834.45,1.45
10837.45,1.35
10839.45,1.37
10841.45,1.39
10843.45,1.36
10845.45,1.48
10847.45,1.44
10849.45,1.45
10851.45,1.48
10853.45,1.36
10855.45,1.41
10856.45,1.33
10858.45,1.33
10860.45,1.4
10862.45,1.45
10864.45,1.44
10866.45,1.36
10868.45,1.46
10870.45,1.63
10872.45,1.58
10874.45,1.55
10876.45,1.48
10879.45,1.53
10881.45,1.58
10883.45,1.61
10885.45,1.63
10887.45,1.62
10889.45,1.68
10891.45,1.7
10893.45,1.65
10895.45,1.7
10897.45,1.55
10899.45,1.55
10900.45,1.52
10902.45,1.54
10904.45,1.57
10906.45,1.53
10908.45,1.59
10910.45,1.64
10912.45,1.58
10914.45,1.54
10916.45,1.43
10918.45,1.52
10921.45,1.51
10923.45,1.53
10925.45,1.58
10927.45,1.5
10929.45,1.57
10931.45,1.61
10933.45,1.56
10935.45,1.5
10937.45,1.4
10939.45,1.52
10941.45,1.61
10942.45,1.68
10944.45,1.64
10946.45,1.56
10948.45,1.64
10950.45,1.64
10952.45,1.63
10954.45,1.62
10956.45,1.55
10958.45,1.57
10960.45,1.64
10962.45,1.63
10965.45,1.65
10967.45,1.57
10969.45,1.77
10971.45,1.7
10973.45,1.61
10975.45,1.72
10977.45,1.56
10979.45,1.65
10981.45,1.75
10983.45,1.7
10984.45,1.75
10986.45,1.71
10988.45,1.8
10990.45,1.77
10992.45,1.73
10994.45,1.67
10996.45,1.48
10998.45,1.63
11000.45,1.55
11002.45,1.58
11004.45,1.59
11007.45,1.44
11009.45,1.62
11011.45,1.79
11013.45,1.43
11015.45,1.67
11017.45,1.4
11019.45,1.49
11021.45,1.56
11023.45,1.59
11025.45,1.77
11027.45,1.72
11028.45,1.8
11030.45,1.68
11032.45,1.43
11034.45,1.35
11036.45,1.43
11038.45,1.49
11040.45,1.56
11042.45,1.44
11044.45,1.38
11046.45,1.46
11049.45,1.65
11051.45,1.57
11053.45,1.45
11055.45,1.45
11057.45,1.17
11059.45,1.28
11061.45,1.2
11063.45,1.42
11065.45,1.24
11067.45,1.11
11069.45,1.14
11070.45,1.13
11072.45,1.0
11074.45,1.28
11076.45,0.73
11078.45,0.63
11080.45,0.46
11082.45,0.75
11084.45,0.54
11086.45,0.34
11088.45,0.24
11090.45,0.17
11093.45,0.11
11095.45,0.0
11097.45,0.0
11099.45,0.0
11101.45,0.0
11103.45,0.0
11105.45,0.0
11107.45,0.0
11109.45,0.0
11111.45,0.0
11112.45,0.0
11114.45,0.0
11116.45,0.0
11118.45,0.0
11120.45,0.0
11122.45,0.0
11124.45,0.0
11126.45,0.0
11128.45,0.0
11130.45,0.0
11132.45,0.0
11135.45,0.0
11137.45,0.0
11139.45,0.04
11141.45,0.0
11143.45,0.0
11145.45,0.47
11147.45,0.46
11149.45,0.43
11151.45,0.41
11153.45,0.56
11155.45,0.67
11156.45,0.59
11158.45,0.58
11160.45,0.98
11162.45,1.46
11164.45,1.49
11166.45,1.39
11168.45,1.53
11170.45,1.47
11172.45,1.4
11174.45,1.59
11177.45,1.7
11179.45,1.77
11181.45,1.84
11183.45,1.84
11185.45,2.15
11187.45,2.1
11189.45,2.14
11191.45,1.89
11193.45,2.18
11195.45,2.29
11197.45,2.39
11198.45,2.67
11200.45,2.71
11202.45,2.67
11204.45,2.69
11206.45,2.8
11208.45,3.0
11210.45,2.88
11212.45,3.03
11214.45,3.06
11216.45,3.22
11218.45,3.3
11221.45,3.3
11223.45,3.29
11225.45,3.3
11227.45,3.28
11229.45,3.19
11231.45,2.81
11233.45,2.67
11235.45,2.38
11237.45,2.48
11239.45,2.51
11240.45,2.51
11242.45,2.34
11244.45,2.14
11246.45,1.91
11248.45,1.88
11250.45,1.86
11252.45,1.73
11254.45,1.61
11256.45,1.57
11258.45,1.93
11260.45,2.33
11263.45,2.63
11265.45,2.38
11267.45,2.07
11269.45,2.01
11271.45,1.97
11273.45,1.94
11275.45,2.21
11277.45,1.99
11279.45,2.26
11281.45,2.38
11283.45,2.08
11284.45,2.32
11286.45,2.25
11288.45,2.32
11290.45,2.31
11292.45,2.21
11294.45,2.35
11296.45,2.47
11298.45,2.35
11300.45,2.16
11302.45,2.07
11305.45,2.32
11307.45,2.25
11309.45,2.18
11311.45,2.22
11313.45,2.16
11315.45,2.18
11317.45,2.1
11319.45,2.27
11321.45,2.17
11323.45,2.1
11325.45,1.93
11326.45,1.97
11328.45,1.9
11330.45,1.77
11332.45,1.71
11334.45,1.48
11336.45,1.12
11338.45,1.29
11340.45,1.29
11342.45,1.51
11344.45,1.61
11346.45,1.53
11349.45,1.55
11351.45,1.56
11353.45,1.87
11355.45,1.87
11357.45,1.89
11359.45,1.95
11361.45,1.94
11363.45,1.73
11365.45,1.57
11367.45,1.43
11368.45,1.4
11370.45,1.5
11372.45,1.44
11374.45,1.56
11376.45,1.44
11378.45,1.52
11380.45,1.77
11382.45,1.75
11384.45,1.59
11386.45,1.63
11388.45,1.81
11391.45,2.0
11393.45,2.19
11395.45,2.24
11397.45,2.05
11399.45,2.11
11401.45,2.15
11403.45,2.2
11405.45,2.2
11407.45,2.09
11409.45,2.3
11411.45,2.45
11412.45,2.39
11414.45,2.46
11416.45,2.33
11418.45,2.35
11420.45,2.35
11422.45,2.48
11424.45,2.45
11426.45,2.25
11428.45,2.4
11430.45,2.3
11433.45,2.23
11435.45,2.29
11437.45,2.36
11439.45,3.3
11441.45,3.3
11443.45,3.21
11445.45,3.15
11447.45,2.9
11449.45,2.85
11451.45,2.65
11453.45,2.5
11454.45,2.29
11456.45,2.07
11458.45,2.06
11460.45,2.04
11462.45,1.96
11464.45,1.96
11466.45,1.81
11468.45,1.75
11470.45,1.83
11472.45,1.69
11474.45,1.55
11477.45,1.36
11479.45,1.45
11481.45,1.39
11483.45,1.35
11485.45,1.45
11487.45,1.36
11489.45,1.37
11491.45,1.42
11493.45,1.28
11495.45,1.16
11496.45,1.01
11498.45,1.1
11500.45,1.1
11502.45,1.11
11504.45,1.15
11506.45,1.08
11508.45,1.18
11510.45,1.16
11512.45,1.17
11514.45,1.18
11516.45,1.03
11519.45,1.03
11521.45,1.05
11523.45,0.98
11525.45,0.95
11527.45,0.94
11529.45,1.14
11531.45,1.25
11533.45,1.21
11535.45,1.17
11537.45,1.08
11539.45,1.21
11540.45,1.29
11542.45,1.29
11544.45,1.37
11546.45,1.34
11548.45,1.39
11550.45,1.37
11552.45,1.35
11554.45,1.2
11556.45,1.04
11558.45,1.17
11561.45,1.2
11563.45,1.2
11565.45,1.2
11567.45,1.09
11569.45,1.15
11571.45,1.21
11573.45,1.21
11575.45,1.16
11577.45,1.16
11579.45,1.24
11581.45,1.23
11582.45,1.27
11584.45,1.3
11586.45,1.28
11588.45,1.36
11590.45,1.29
11592.45,1.31
11594.45,1.27
11596.45,1.15
11598.45,1.24
11600.45,1.21
11602.45,1.29
11605.45,1.26
11607.45,1.17
11609.45,1.28
11611.45,1.19
11613.45,1.12
11615.45,1.12
11617.45,1.1
11619.45,1.29
11621.45,1.32
11623.45,1.28
11624.45,1.29
11626.45,1.28
11628.45,1.32
11630.45,1.29
11632.45,1.27
11634.45,1.12
11636.45,0.99
11638.45,1.12
11640.45,1.05
11642.45,1.24
11644.45,1.31
11647.45,1.33
11649.45,1.39
11651.45,1.26
11653.45,1.16
11655.45,1.05
11657.45,0.99
11659.45,1.1
11661.45,1.12
11663.45,1.06
11665.45,1.03
11667.45,0.98
11668.45,1.07
11670.45,0.96
11672.45,0.85
11674.45,0.85
11676.45,0.82
11678.45,0.84
11680.45,0.96
11682.45,0.93
11684.45,0.93
11686.45,0.97
11689.45,1.06
11691.45,0.98
11693.45,0.97
11695.45,0.9
11697.45,0.86
11699.45,0.91
11701.45,0.96
11703.45,0.98
11705.45,1.05
11707.45,1.07
11709.45,1.15
11710.45,1.14
11712.45,1.11
11714.45,1.0
11716.45,0.98
11718.45,1.01
11720.45,0.95
11722.45,1.01
11724.45,1.09
11726.45,1.11
11728.45,1.21
11730.45,1.19
11733.45,1.19
11735.45,1.14
11737.45,1.17
11739.45,1.24
11741.45,1.25
11743.45,1.34
11745.45,1.32
11747.45,1.31
11749.45,1.43
11751.45,1.4
11752.45,1.3
11754.45,1.28
11756.45,1.23
11758.45,1.24
11760.45,1.22
11762.45,1.24
11764.45,1.23
11766.45,1.26
11768.45,1.27
11770.45,1.21
11772.45,1.23
11775.45,1.18
11777.45,1.08
11779.45,1.15
11781.45,1.15
11783.45,1.14
11785.45,1.17
11787.45,1.23
11789.45,1.28
11791.45,1.32
11793.45,1.23
11795.45,1.15
11796.45,1.15
11798.45,1.24
11800.45,1.25
11802.45,1.33
11804.45,1.46
11806.45,1.48
11808.45,1.53
11810.45,1.49
11812.45,1.41
11814.45,1.31
11817.45,1.26
11819.45,1.33
11821.45,1.38
11823.45,1.46
11825.45,1.44
11827.45,1.43
11829.45,1.52
11831.45,1.53
11833.45,1.52
11835.45,1.43
11837.45,1.37
11838.45,1.44
11840.45,1.46
11842.45,1.47
11844.45,1.5
11846.45,1.52
11848.45,1.57
11850.45,1.46
11852.45,1.46
11854.45,1.39
11856.45,1.34
11858.45,1.3
11861.45,1.29
11863.45,1.24
11865.45,1.29
11867.45,1.36
11869.45,1.36
11871.45,1.35
11873.45,1.33
11875.45,1.23
11877.45,1.17
11879.45,1.2
11880.45,1.2
11882.45,1.24
11884.45,1.25
11886.45,1.25
11888.45,1.33
11890.45,1.32
11892.45,1.25
11894.45,1.23
11896.45,1.25
11898.45,1.31
11900.45,1.37
11903.45,1.41
11905.45,1.44
11907.45,1.45
11909.45,1.56
11911.45,1.49
11913.45,1.56
11915.45,1.51
11917.45,1.48
11919.45,1.5
11921.45,1.53
11923.45,1.55
11924.45,1.5
11926.45,1.5
11928.45,3.3
11930.45,3.3
11932.45,3.3
11934.45,3.3
11936.45,3.3
11938.45,3.3
11940.45,3.3
11942.45,3.3
11945.45,3.3
11947.45,3.3
11949.45,3.3
11951.45,3.3
11953.45,3.3
11955.45,3.3
11957.45,3.3
11959.45,3.3
11961.45,3.3
11963.45,3.3
11965.45,3.3
11966.45,3.3
11968.45,3.3
11970.45,3.3
11972.45,3.3
11974.45,3.3
11976.45,3.3
11978.45,3.3
11980.45,3.3
11982.45,3.3
11984.45,3.3
11986.45,3.3
11989.45,3.3
11991.45,3.3
11993.45,3.3
11995.45,3.3
11997.45,3.3
11999.45,3.3
12001.45,3.3
12003.45,3.3
12005.45,3.3
12007.45,3.3
12008.45,3.3
12010.45,3.3
12012.45,3.3
12014.45,3.3
12016.45,3.21
12018.45,3.12
12020.45,2.86
12022.45,2.86
12024.45,2.83
12026.45,2.78
12028.45,2.8
12031.45,2.65
12033.45,2.47
12035.45,2.28
12037.45,2.13
12039.45,2.06
12041.45,2.15
12043.45,2.34
12045.45,2.24
12047.45,2.05
12049.45,2.03
12051.45,2.0
12052.45,1.98
12054.45,1.83
12056.45,1.86
12058.45,1.75
12060.45,1.95
12062.45,1.85
12064.45,2.01
12066.45,1.84
12068.45,1.9
12070.45,1.84
12073.45,1.85
12075.45,1.75
12077.45,1.87
12079.45,2.06
12081.45,2.03
12083.45,1.77
12085.45,1.79
12087.45,1.75
12089.45,2.02
12091.45,1.93
12093.45,1.55
12094.45,1.37
12096.45,1.45
12098.45,1.37
12100.45,1.16
12102.45,1.2
12104.45,1.23
12106.45,1.07
12108.45,1.06
12110.45,0.87
12112.45,0.6
12114.45,0.33
12117.45,0.56
12119.45,0.5
12121.45,0.6
12123.45,0.54
12125.45,0.56
12127.45,0.61
12129.45,0.69
12131.45,0.63
12133.45,0.55
12135.45,0.34
12136.45,0.24
12138.45,0.17
12140.45,0.16
12142.45,0.19
12144.45,0.19
12146.45,0.08
12148.45,0.0
12150.45,0.14
12152.45,0.12
12154.45,0.0
12156.45,0.0
12159.45,0.0
12161.45,0.0
12163.45,0.0
12165.45,0.0
12167.45,0.0
12169.45,0.0
12171.45,0.0
12173.45,0.0
12175.45,0.0
12177.45,0.0
12179.45,0.04
12180.45,0.06
12182.45,0.1
12184.45,0.06
12186.45,0.12
12188.45,0.16
12190.45,0.35
12192.45,0.23
12194.45,0.08
12196.45,0.45
12198.45,0.54
12201.45,0.67
12203.45,0.85
12205.45,0.92
12207.45,0.72
12209.45,0.42
12211.45,0.23
12213.45,0.15
12215.45,0.07
12217.45,0.07
12219.45,0.23
12221.45,0.26
12222.45,0.39
12224.45,0.51
12226.45,0.66
12228.45,0.0
12230.45,0.0
12232.45,0.0
12234.45,0.0
12236.45,0.0
12238.45,0.0
12240.45,0.0
12242.45,0.0
12245.45,0.0
12247.45,0.0
12249.45,0.0
12251.45,0.0
12253.45,0.0
12255.45,0.0
12257.45,0.0
12259.45,0.0
12261.45,0.04
12263.45,0.1
12264.45,0.15
12266.45,0.33
12268.45,0.46
12270.45,0.58
12272.45,0.48
12274.45,0.42
12276.45,0.36
12278.45,0.51
12280.45,0.47
12282.45,0.47
12284.45,0.28
12287.45,0.57
12289.45,0.39
12291.45,0.45
12293.45,0.41
12295.45,0.37
12297.45,0.46
12299.45,0.72
12301.45,0.97
12303.45,1.06
12305.45,1.12
12307.45,1.2
12308.45,1.18
12310.45,1.4
12312.45,1.32
12314.45,1.5
12316.45,1.5
12318.45,1.9
12320.45,1.93
12322.45,1.82
12324.45,1.79
12326.45,1.83
12329.45,1.62
12331.45,1.6
12333.45,1.45
12335.45,1.31
12337.45,0.85
12339.45,0.66
12341.45,0.75
12343.45,0.76
12345.45,0.74
12347.45,0.95
12349.45,0.94
12350.45,1.04
12352.45,1.22
12354.45,1.16
12356.45,1.3
12358.45,1.17
12360.45,1.15
12362.45,0.99
12364.45,0.8
12366.45,1.1
12368.45,1.15
12370.45,1.07
12373.45,0.85
12375.45,0.83
12377.45,0.92
12379.45,1.0
12381.45,1.27
12383.45,1.28
12385.45,1.1
12387.45,1.42
12389.45,1.55
12391.45,1.68
12392.45,1.68
12394.45,1.56
12396.45,1.67
12398.45,1.76
12400.45,1.71
12402.45,1.43
12404.45,1.33
12406.45,1.39
12408.45,1.35
12410.45,1.16
12412.45,0.81
12415.45,0.37
12417.45,0.3
12419.45,0.17
12421.45,0.23
12423.45,0.25
12425.45,0.3
12427.45,0.48
12429.45,0.7
12431.45,0.79
12433.45,0.91
12435.45,0.87
12436.45,0.9
12438.45,0.9
12440.45,1.07
12442.45,1.1
12444.45,0.78
12446.45,0.75
12448.45,0.55
12450.45,0.32
12452.45,0.0
12454.45,0.0
12457.45,0.0
12459.45,0.0
12461.45,0.0
12463.45,0.0
12465.45,0.0
12467.45,0.0
12469.45,0.0
12471.45,0.0
12473.45,0.0
12475.45,0.0
12477.45,0.0
12478.45,0.0
12480.45,0.0
12482.45,0.0
12484.45,0.0
12486.45,0.15
12488.45,0.27
12490.45,0.33
12492.45,0.47
12494.45,0.5
12496.45,0.64
12498.45,0.83
12501.45,0.87
12503.45,1.08
12505.45,1.21
12507.45,1.33
12509.45,1.37
12511.45,1.36
12513.45,1.41
12515.45,1.46
12517.45,1.44
12519.45,1.47
12520.45,1.58
12522.45,1.76
12524.45,1.88
12526.45,2.1
12528.45,2.19
12530.45,2.2
12532.45,2.15
12534.45,2.11
12536.45,2.14
12538.45,2.15
12540.45,2.14
12543.45,2.15
12545.45,2.12
12547.45,2.13
12549.45,2.15
12551.45,2.2
12553.45,2.21
12555.45,2.14
12557.45,2.2
12559.45,2.11
12561.45,2.04
12563.45,2.12
12564.45,2.14
12566.45,2.14
12568.45,2.09
12570.45,2.01
12572.45,2.03
12574.45,1.91
12576.45,1.97
12578.45,2.24
12580.45,2.26
12582.45,2.25
12585.45,2.28
12587.45,2.32
12589.45,2.32
12591.45,2.28
12593.45,2.28
12595.45,2.17
12597.45,2.31
12599.45,2.33
12601.45,2.31
12603.45,2.38
12605.45,2.25
12606.45,2.29
12608.45,2.29
12610.45,2.24
12612.45,2.27
12614.45,2.23
12616.45,2.38
12618.45,2.44
12620.45,2.56
12622.45,2.65
12624.45,2.55
12626.45,2.52
12629.45,2.46
12631.45,2.37
12633.45,2.17
12635.45,1.92
12637.45,2.01
12639.45,2.0
12641.45,2.02
12643.45,2.0
12645.45,1.96
12647.45,2.02
12648.45,2.01
12650.45,1.99
12652.45,1.93
12654.45,1.85
12656.45,1.92
12658.45,1.94
12660.45,1.87
12662.45,1.9
12664.45,1.85
12666.45,1.93
12668.45,2.01
12671.45,2.05
12673.45,2.0
12675.45,1.85
12677.45,1.95
12679.45,1.87
12681.45,1.85
12683.45,1.9
12685.45,1.88
12687.45,1.97
12689.45,2.0
12691.45,1.96
12692.45,1.93
12694.45,1.89
12696.45,1.94
12698.45,1.95
12700.45,1.95
12702.45,1.97
12704.45,1.87
12706.45,1.89
12708.45,1.82
12710.45,1.75
12713.45,1.65
12715.45,1.43
12717.45,1.42
12719.45,1.41
12721.45,1.42
12723.45,1.51
12725.45,1.64
12727.45,1.81
12729.45,1.8
12731.45,1.73
12733.45,1.66
12734.45,1.56
12736.45,1.63
12738.45,1.67
12740.45,1.59
12742.45,1.61
12744.45,1.57
12746.45,1.63
12748.45,1.63
12750.45,1.59
12752.45,1.51
12754.45,1.43
12757.45,1.55
12759.45,1.56
12761.45,1.58
12763.45,1.6
12765.45,1.4
12767.45,1.43
12769.45,1.47
12771.45,1.46
12773.45,1.37
12775.45,1.33
12777.45,1.42
12778.45,1.38
12780.45,1.41
12782.45,1.45
12784.45,1.41
12786.45,1.57
12788.45,1.51
12790.45,1.43
12792.45,1.4
12794.45,1.31
12796.45,1.35
12799.45,1.37
12801.45,1.37
12803.45,1.4
12805.45,1.48
12807.45,1.6
12809.45,1.58
12811.45,1.53
12813.45,1.41
12815.45,1.2
12817.45,1.25
12819.45,1.36
12820.45,1.4
12822.45,1.43
12824.45,2.8
12826.45,3.3
12828.45,3.3
12830.45,3.3
12832.45,3.3
12834.45,3.3
12836.45,3.3
12838.45,3.3
12841.45,3.3
12843.45,3.3
12845.45,3.3
12847.45,3.3
12849.45,3.3
12851.45,3.3
12853.45,3.3
12855.45,3.24
12857.45,3.14
12859.45,2.93
12861.45,2.76
12862.45,2.72
12864.45,2.52
12866.45,2.5
12868.45,2.37
12870.45,2.15
12872.45,2.0
12874.45,1.85
12876.45,1.78
12878.45,1.67
12880.45,1.6
12882.45,1.57
12885.45,1.49
12887.45,1.57
12889.45,1.45
12891.45,1.34
12893.45,1.22
12895.45,1.06
12897.45,1.06
12899.45,0.99
12901.45,1.04
12903.45,1.06
12905.45,1.01
12906.45,1.2
12908.45,1.2
12910.45,1.2
12912.45,1.05
12914.45,0.83
12916.45,0.85
12918.45,0.86
12920.45,0.87
12922.45,0.91
12924.45,0.88
12927.45,0.96
12929.45,1.03
12931.45,1.03
12933.45,1.02
12935.45,0.96
12937.45,1.06
12939.45,0.98
12941.45,1.01
12943.45,1.04
12945.45,0.97
12947.45,1.11
12948.45,1.01
12950.45,1.01
12952.45,1.01
12954.45,0.89
12956.45,0.91
12958.45,1.0
12960.45,1.07
12962.45,1.08
12964.45,1.07
12966.45,1.16
12969.45,1.15
12971.45,1.13
12973.45,1.11
12975.45,1.05
12977.45,1.1
12979.45,1.13
12981.45,1.12
12983.45,1.18
12985.45,1.15
12987.45,1.21
12989.45,1.21
12990.45,1.31
12992.45,1.37
12994.45,1.27
12996.45,1.3
12998.45,1.14
13000.45,1.14
13002.45,1.2
13004.45,1.16
13006.45,1.25
13008.45,1.31
13010.45,1.24
13013.45,1.15
13015.45,1.12
13017.45,1.18
13019.45,1.24
13021.45,1.38
13023.45,1.45
13025.45,1.41
13027.45,1.65
13029.45,1.57
13031.45,1.5
13033.45,1.46
13034.45,1.31
13036.45,1.21
13038.45,1.07
13040.45,1.01
13042.45,1.29
13044.45,1.3
13046.45,1.41
13048.45,1.35
13050.45,1.3
13052.45,1.35
13055.45,1.24
13057.45,1.2
13059.45,1.2
13061.45,1.33
13063.45,1.32
13065.45,1.24
13067.45,1.47
13069.45,1.52
13071.45,1.52
13073.45,1.5
13075.45,1.4
13076.45,1.61
13078.45,1.55
13080.45,1.53
13082.45,1.64
13084.45,1.97
13086.45,1.94
13088.45,1.73
13090.45,1.75
13092.45,1.94
13094.45,1.76
13097.45,1.76
13099.45,1.82
13101.45,1.82
13103.45,1.85
13105.45,1.87
13107.45,2.0
13109.45,2.01
13111.45,1.89
13113.45,1.68
13115.45,1.45
13117.45,1.43
13118.45,2.11
13120.45,2.06
13122.45,1.77
13124.45,1.77
13126.45,1.82
13128.45,1.65
13130.45,1.68
13132.45,1.78
13134.45,1.71
13136.45,1.81
13138.45,1.92
13141.45,1.9
13143.45,2.0
13145.45,2.28
13147.45,2.48
13149.45,2.29
13151.45,2.39
13153.45,2.14
13155.45,1.89
13157.45,2.05
13159.45,2.21
13161.45,2.06
13162.45,2.13
13164.45,2.13
13166.45,2.21
13168.45,2.41
13170.45,2.41
13172.45,2.49
13174.45,2.15
13176.45,2.44
13178.45,2.41
13180.45,2.62
13183.45,2.48
13185.45,2.35
13187.45,2.45
13189.45,2.31
13191.45,2.05
13193.45,1.88
13195.45,1.45
13197.45,1.27
13199.45,1.41
13201.45,1.42
13203.45,1.53
13204.45,1.63
13206.45,1.86
13208.45,1.95
13210.45,1.98
13212.45,2.1
13214.45,2.15
13216.45,2.18
13218.45,2.23
13220.45,2.32
13222.45,2.19
13225.45,2.09
13227.45,1.96
13229.45,1.7
13231.45,1.57
13233.45,1.7
13235.45,1.34
13237.45,1.37
13239.45,1.34
13241.45,1.41
13243.45,1.34
13245.45,1.09
13247.45,1.04
13248.45,0.99
13250.45,0.94
13252.45,0.83
13254.45,0.7
13256.45,0.89
13258.45,0.61
13260.45,0.44
13262.45,0.36
13264.45,0.27
13266.45,0.37
13269.45,0.38
13271.45,0.49
13273.45,0.46
13275.45,0.34
13277.45,0.36
13279.45,0.55
13281.45,0.69
13283.45,0.55
13285.45,0.42
13287.45,0.26
13289.45,0.01
13290.45,0.0
13292.45,0.0
13294.45,0.0
13296.45,0.0
13298.45,0.0
13300.45,0.02
13302.45,0.02
13304.45,0.17
13306.45,0.61
13308.45,0.88
13311.45,1.17
13313.45,0.95
13315.45,0.6
13317.45,0.45
13319.45,0.38
13321.45,0.5
13323.45,0.66
13325.45,0.95
13327.45,0.81
13329.45,0.61
13331.45,0.51
13332.45,0.58
13334.45,0.45
13336.45,0.77
13338.45,0.87
13340.45,0.97
13342.45,1.21
13344.45,1.32
13346.45,1.57
13348.45,1.64
13350.45,1.73
13353.45,1.73
13355.45,1.77
13357.45,1.75
13359.45,1.64
13361.45,1.48
13363.45,1.72
13365.45,1.59
13367.45,1.68
13369.45,1.71
13371.45,1.61
13373.45,1.58
13375.45,1.57
13376.45,1.55
13378.45,1.5
13380.45,1.55
13382.45,1.55
13384.45,1.6
13386.45,1.58
13388.45,1.45
13390.45,1.37
13392.45,1.03
13394.45,1.1
13397.45,1.38
13399.45,1.34
13401.45,1.33
13403.45,1.35
13405.45,1.22
13407.45,1.24
13409.45,1.28
13411.45,1.25
13413.45,0.83
13415.45,0.64
13417.45,0.72
13418.45,0.78
13420.45,0.72
13422.45,0.7
13424.45,0.59
13426.45,0.71
13428.45,0.74
13430.45,0.71
13432.45,0.78
13434.45,0.68
13436.45,0.98
13439.45,1.07
13441.45,1.18
13443.45,1.21
13445.45,1.58
13447.45,1.71
13449.45,1.62
13451.45,1.59
13453.45,1.41
13455.45,1.29
13457.45,1.15
13459.45,1.18
13460.45,1.21
13462.45,1.3
13464.45,1.29
13466.45,1.24
13468.45,1.19
13470.45,1.13
13472.45,1.01
13474.45,1.03
13476.45,0.98
13478.45,1.01
13481.45,1.09
13483.45,1.08
13485.45,1.44
13487.45,1.66
13489.45,1.67
13491.45,1.48
13493.45,1.22
13495.45,1.2
13497.45,1.2
13499.45,1.18
13501.45,1.35
13503.45,1.39
13504.45,1.44
13506.45,1.48
13508.45,1.48
13510.45,1.34
13512.45,1.15
13514.45,1.13
13516.45,1.21
13518.45,1.25
13520.45,0.96
13522.45,0.6
13525.45,0.65
13527.45,0.7
13529.45,0.72
13531.45,0.96
13533.45,1.04
13535.45,1.06
13537.45,1.1
13539.45,1.32
13541.45,1.71
13543.45,1.88
13545.45,1.93
13546.45,2.01
13548.45,1.98
13550.45,1.96
13552.45,1.75
13554.45,1.73
13556.45,1.76
13558.45,1.8
13560.45,1.79
13562.45,1.81
13564.45,1.81
13567.45,1.76
13569.45,1.68
13571.45,1.62
13573.45,1.52
13575.45,1.51
13577.45,1.55
13579.45,1.55
13581.45,1.59
13583.45,1.66
13585.45,1.79
13587.45,1.82
13588.45,1.74
13590.45,1.66
13592.45,1.63
13594.45,1.63
13596.45,1.61
13598.45,1.65
13600.45,1.79
13602.45,1.89
13604.45,1.97
13606.45,2.04
13609.45,1.9
13611.45,1.91
13613.45,1.91
13615.45,1.86
13617.45,1.9
13619.45,1.92
13621.45,1.82
13623.45,1.78
13625.45,1.79
13627.45,1.8
13629.45,1.74
13631.45,1.65
13632.45,1.54
13634.45,1.59
13636.45,1.7
13638.45,1.67
13640.45,1.62
13642.45,1.59
13644.45,1.63
13646.45,1.6
13648.45,1.64
13650.45,1.65
13653.45,1.56
13655.45,1.48
13657.45,1.53
13659.45,1.62
13661.45,1.69
13663.45,1.65
13665.45,1.6
13667.45,1.63
13669.45,1.57
13671.45,1.39
13673.45,1.24
13674.45,1.24
13676.45,1.27
13678.45,1.27
13680.45,1.26
13682.45,1.23
13684.45,1.3
13686.45,1.36
13688.45,1.27
13690.45,1.18
13692.45,1.11
13695.45,1.1
13697.45,1.16
13699.45,1.21
13701.45,1.26
13703.45,1.21
13705.45,1.28
13707.45,1.31
13709.45,1.39
13711.45,1.34
13713.45,1.22
13715.45,1.22
13716.45,1.29
13718.45,1.3
13720.45,1.34
13722.45,1.3
13724.45,1.41
13726.45,1.46
13728.45,1.39
13730.45,1.38
13732.45,1.28
13734.45,1.26
13737.45,1.3
13739.45,1.3
13741.45,1.4
13743.45,1.41
13745.45,1.38
13747.45,1.47
13749.45,1.44
13751.45,1.48
13753.45,1.38
13755.45,1.38
13757.45,1.39
13759.45,1.44
13760.45,1.44
13762.45,1.45
13764.45,1.5
13766.45,1.53
13768.45,1.47
13770.45,1.47
13772.45,1.34
13774.45,1.38
13776.45,1.42
13778.45,1.45
13781.45,1.45
13783.45,1.49
13785.45,1.57
13787.45,1.58
13789.45,1.5
13791.45,1.48
13793.45,1.35
13795.45,1.37
13797.45,1.45
13799.45,1.47
13801.45,1.53
13802.45,1.5
13804.45,1.5
13806.45,1.61
13808.45,1.62
13810.45,1.55
13812.45,1.49
13814.45,1.49
13816.45,1.55
13818.45,1.6
13820.45,1.64
13823.45,1.58
13825.45,1.66
13827.45,1.73
13829.45,1.78
13831.45,1.77
13833.45,1.68
13835.45,1.7
13837.45,1.7
13839.45,1.81
13841.45,1.92
13843.45,1.94
13844.45,2.0
13846.45,1.99
13848.45,1.92
13850.45,1.94
13852.45,1.81
13854.45,1.78
13856.45,1.83
13858.45,1.84
13860.45,1.84
13862.45,1.8
13865.45,1.81
13867.45,1.84
13869.45,1.81
13871.45,1.67
13873.45,1.49
13875.45,1.54
13877.45,1.66
13879.45,1.74
13881.45,1.78
13883.45,1.78
13885.45,1.86
13887.45,1.9
13888.45,1.87
13890.45,1.95
13892.45,1.73
13894.45,1.72
13896.45,1.61
13898.45,1.67
13900.45,1.74
13902.45,1.69
13904.45,1.75
13906.45,1.71
13909.45,1.72
13911.45,1.64
13913.45,1.5
13915.45,1.51
13917.45,1.52
13919.45,1.53
13921.45,1.63
13923.45,1.57
13925.45,1.63
13927.45,1.65
13929.45,1.61
13930.45,1.64
13932.45,1.49
13934.45,1.44
13936.45,1.48
13938.45,1.49
13940.45,1.53
13942.45,1.53
13944.45,1.58
13946.45,1.5
13948.45,1.4
13951.45,1.46
13953.45,1.33
13955.45,1.3
13957.45,1.3
13959.45,1.29
13961.45,1.2
13963.45,1.28
13965.45,1.44
13967.45,1.5
13969.45,1.57
13971.45,1.51
13972.45,1.41
13974.45,1.41
13976.45,1.35
13978.45,1.49
13980.45,1.49
13982.45,1.58
13984.45,1.63
13986.45,1.81
13988.45,1.8
13990.45,1.59
13993.45,1.59
13995.45,1.58
13997.45,1.59
13999.45,1.64
14001.45,1.68
14003.45,1.52
14005.45,1.66
14007.45,1.94
14009.45,1.81
14011.45,1.68
14013.45,1.62
14015.45,1.78
14016.45,1.9
14018.45,1.87
14020.45,1.8
14022.45,1.85
14024.45,2.05
14026.45,2.03
14028.45,1.94
14030.45,1.77
14032.45,1.54
14034.45,1.53
14037.45,1.34
14039.45,1.27
14041.45,1.44
14043.45,1.54
14045.45,1.88
14047.45,1.74
14049.45,1.66
14051.45,1.61
14053.45,1.37
14055.45,1.55
14057.45,1.45
14058.45,1.55
14060.45,1.53
14062.45,1.63
14064.45,1.68
14066.45,1.65
14068.45,1.56
14070.45,1.4
14072.45,1.33
14074.45,1.54
14076.45,1.46
14079.45,1.52
14081.45,1.57
14083.45,1.58
14085.45,1.96
14087.45,2.09
14089.45,1.99
14091.45,1.85
14093.45,1.58
14095.45,1.42
14097.45,1.27
14099.45,1.17
14100.45,1.32
14102.45,1.31
14104.45,1.54
14106.45,1.74
14108.45,1.67
14110.45,1.72
14112.45,1.67
14114.45,1.84
14116.45,1.74
14118.45,1.67
14121.45,1.75
14123.45,1.8
14125.45,1.82
14127.45,2.1
14129.45,1.97
14131.45,1.89
14133.45,1.92
14135.45,1.86
14137.45,1.9
14139.45,1.93
14141.45,1.91
14143.45,1.84
14144.45,2.02
14146.45,2.07
14148.45,1.98
14150.45,2.03
14152.45,1.93
14154.45,2.04
14156.45,2.11
14158.45,2.27
14160.45,2.2
14162.45,2.11
14165.45,2.27
14167.45,2.14
14169.45,2.0
14171.45,2.02
14173.45,1.84
14175.45,1.75
14177.45,1.84
14179.45,1.86
14181.45,1.84
14183.45,1.73
14185.45,1.54
14186.45,1.38
14188.45,1.37
14190.45,1.42
14192.45,1.32
14194.45,1.23
14196.45,1.17
14198.45,1.11
14200.45,1.27
14202.45,1.07
14204.45,1.26
14207.45,1.28
14209.45,1.36
14211.45,1.49
14213.45,1.28
14215.45,1.2
14217.45,1.2
14219.45,1.39
14221.45,1.41
14223.45,1.66
14225.45,1.76
14227.45,1.76
14228.45,1.77
14230.45,1.58
14232.45,1.36
14234.45,1.48
14236.45,1.4
14238.45,1.32
14240.45,1.55
14242.45,1.56
14244.45,1.49
14246.45,1.37
14249.45,1.49
14251.45,1.49
14253.45,1.15
14255.45,0.85
14257.45,0.95
14259.45,0.92
14261.45,0.98
14263.45,1.11
14265.45,1.25
14267.45,1.07
14269.45,0.98
14271.45,0.96
14272.45,0.79
14274.45,0.94
14276.45,1.06
14278.45,1.18
14280.45,1.3
14282.45,1.2
14284.45,1.31
14286.45,1.23
14288.45,1.14
14290.45,1.08
14293.45,1.05
14295.45,0.76
14297.45,0.75
14299.45,0.9
14301.45,1.05
14303.45,1.04
14305.45,1.18
14307.45,1.33
14309.45,1.26
14311.45,1.18
14313.45,1.04
14314.45,1.15
14316.45,1.2
14318.45,1.26
14320.45,1.25
14322.45,1.25
14324.45,1.33
14326.45,1.17
14328.45,1.44
14330.45,1.44
14332.45,1.26
14335.45,1.26
14337.45,1.45
14339.45,1.51
14341.45,1.47
14343.45,1.61
14345.45,1.73
14347.45,1.61
14349.45,1.62
14351.45,1.51
14353.45,1.46
14355.45,1.52
14356.45,1.44
14358.45,1.4
14360.45,1.54
14362.45,1.35
14364.45,1.42
14366.45,1.44
14368.45,1.37
14370.45,1.28
14372.45,1.19
14374.45,1.22
14377.45,1.22
14379.45,1.3
14381.45,1.35
14383.45,1.27
14385.45,1.43
14387.45,1.44
14389.45,1.29
14391.45,1.32
14393.45,1.17
14395.45,1.08
14397.45,1.2
14399.45,1.32
14400.45,1.43
14402.45,1.39
14404.45,1.52
14406.45,1.46
14408.45,1.42
14410.45,1.37
14412.45,1.21
14414.45,1.26
14416.45,1.29
14418.45,1.23
14421.45,1.19
14423.45,1.19
14425.45,1.33
14427.45,1.29
14429.45,1.3
14431.45,1.28
14433.45,1.15
14435.45,1.17
14437.45,1.4
14439.45,1.28
14441.45,1.33
14442.45,1.29
14444.45,1.3
14446.45,1.33
14448.45,1.26
14450.45,1.17
14452.45,1.05
14454.45,1.06
14456.45,1.04
14458.45,1.07
14460.45,1.02
14463.45,1.03
14465.45,1.13
14467.45,1.12
14469.45,1.17
14471.45,1.12
14473.45,1.03
14475.45,1.12
14477.45,1.13
14479.45,1.12
14481.45,1.17
14483.45,1.23
14484.45,1.33
14486.45,1.32
14488.45,1.39
14490.45,1.39
14492.45,1.31
14494.45,1.35
14496.45,1.3
14498.45,1.25
14500.45,1.24
14502.45,1.17
14505.45,1.39
14507.45,1.31
14509.45,1.26
14511.45,1.14
14513.45,1.03
14515.45,1.14
14517.45,1.12
14519.45,1.11
14521.45,1.15
14523.45,1.13
14525.45,1.32
14527.45,1.38
14528.45,1.4
14530.45,1.28
14532.45,1.2
14534.45,1.28
14536.45,1.27
14538.45,1.31
14540.45,1.42
14542.45,1.36
14544.45,1.45
14546.45,1.39
14549.45,1.36
14551.45,1.31
14553.45,1.22
14555.45,1.29
14557.45,1.38
14559.45,1.43
14561.45,1.4
14563.45,1.34
14565.45,1.44
14567.45,1.43
14569.45,1.37
14570.45,1.33
14572.45,1.25
14574.45,1.31
14576.45,1.38
14578.45,1.37
14580.45,1.41
14582.45,1.4
14584.45,1.5
14586.45,1.43
14588.45,1.45
14591.45,1.43
14593.45,1.3
14595.45,1.36
14597.45,1.36
14599.45,1.4
14601.45,1.42
14603.45,1.33
14605.45,1.28
14607.45,1.21
14609.45,1.18
14611.45,1.06
14612.45,0.98
14614.45,1.09
14616.45,1.13
14618.45,1.22
14620.45,1.27
14622.45,1.28
14624.45,1.45
14626.45,1.53
14628.45,1.4
14630.45,1.35
14633.45,1.25
14635.45,1.32
14637.45,1.31
14639.45,1.29
14641.45,1.26
14643.45,1.27
14645.45,1.38
14647.45,1.37
14649.45,1.36
14651.45,1.33
14653.45,1.21
14655.45,1.21
14656.45,1.28
14658.45,1.31
14660.45,1.36
14662.45,1.38
14664.45,1.51
14666.45,1.53
14668.45,1.51
14670.45,1.42
14672.45,1.39
14674.45,1.45
14677.45,1.48
14679.45,1.53
14681.45,1.59
14683.45,1.63
14685.45,1.73
14687.45,1.75
14689.45,1.72
14691.45,1.55
14693.45,1.41
14695.45,1.54
14697.45,1.58
14698.45,1.7
14700.45,1.79
14702.45,1.75
14704.45,1.84
14706.45,1.89
14708.45,1.85
14710.45,1.77
14712.45,1.7
14714.45,1.76
14716.45,1.79
14719.45,1.82
14721.45,1.8
14723.45,1.8
14725.45,1.88
14727.45,1.79
14729.45,1.78
14731.45,1.67
14733.45,1.59
14735.45,1.62
14737.45,1.7
14739.45,1.79
14740.45,1.85
14742.45,1.84
14744.45,1.88
14746.45,1.74
14748.45,1.71
14750.45,1.58
14752.45,1.49
14754.45,1.63
14756.45,1.69
14758.45,1.95
14761.45,2.0
14763.45,1.92
14765.45,2.02
14767.45,1.97
14769.45,1.91
14771.45,1.7
14773.45,1.5
14775.45,1.56
14777.45,1.53
14779.45,1.59
14781.45,1.64
14783.45,1.65
14784.45,1.73
14786.45,1.71
14788.45,1.72
14790.45,1.65
14792.45,1.61
14794.45,1.61
14796.45,1.61
14798.45,1.94
14800.45,2.03
14802.45,2.05
14805.45,2.13
14807.45,2.06
14809.45,2.01
14811.45,1.95
14813.45,1.81
14815.45,1.85
14817.45,1.8
14819.45,1.85
14821.45,1.83
14823.45,1.89
14825.45,1.96
14826.45,1.9
14828.45,1.87
14830.45,1.73
14832.45,1.71
14834.45,1.81
14836.45,1.82
14838.45,1.81
14840.45,1.83
14842.45,1.87
14844.45,1.91
14847.45,1.88
14849.45,1.84
14851.45,1.72
14853.45,1.65
14855.45,1.7
14857.45,1.81
14859.45,1.92
14861.45,1.89
14863.45,1.89
14865.45,1.91
14867.45,1.94
14868.45,1.84
14870.45,1.72
14872.45,1.66
14874.45,1.69
14876.45,1.76
14878.45,1.72
14880.45,1.79
14882.45,1.77
14884.45,1.81
14886.45,1.81
14889.45,1.75
14891.45,1.47
14893.45,1.57
14895.45,1.63
14897.45,1.67
14899.45,1.56
14901.45,1.65
14903.45,1.59
14905.45,1.62
14907.45,1.66
14909.45,1.49
14911.45,1.52
14912.45,1.37
14914.45,1.57
14916.45,1.57
14918.45,1.6
14920.45,1.5
14922.45,1.64
14924.45,1.72
14926.45,1.66
14928.45,1.6
14930.45,1.54
14933.45,1.48
14935.45,1.62
14937.45,1.58
14939.45,1.6
14941.45,1.53
14943.45,1.7
14945.45,1.98
14947.45,2.09
14949.45,1.85
14951.45,1.69
14953.45,1.84
14954.45,1.8
14956.45,1.71
14958.45,1.77
14960.45,1.76
14962.45,1.65
14964.45,1.87
14966.45,1.95
14968.45,1.65
14970.45,1.58
14972.45,1.65
14975.45,1.72
14977.45,1.85
14979.45,1.88
14981.45,1.8
14983.45,1.94
14985.45,1.87
14987.45,1.89
14989.45,1.71
14991.45,1.45
14993.45,1.22
14995.45,1.31
14996.45,1.25
14998.45,1.25
15000.45,1.35
15002.45,1.38
15004.45,1.33
15006.45,1.34
15008.45,1.21
15010.45,1.0
15012.45,0.81
15014.45,0.9
15017.45,1.15
15019.45,1.15
15021.45,0.84
15023.45,0.93
15025.45,0.91
15027.45,0.8
15029.45,0.71
15031.45,0.51
15033.45,0.26
15035.45,0.78
15037.45,0.65
15039.45,0.73
15040.45,0.62
15042.45,0.82
15044.45,0.66
15046.45,0.36
15048.45,0.28
15050.45,0.24
15052.45,0.18
15054.45,0.06
15056.45,0.14
15058.45,0.14
15061.45,0.1
15063.45,0.15
15065.45,0.18
15067.45,0.35
15069.45,0.24
15071.45,0.21
15073.45,0.25
15075.45,0.4
15077.45,0.18
15079.45,0.78
15081.45,0.86
15082.45,1.04
15084.45,1.35
15086.45,1.48
15088.45,1.62
15090.45,1.62
15092.45,1.6
15094.45,1.98
15096.45,1.98
15098.45,1.94
15100.45,2.01
15103.45,2.18
15105.45,2.73
15107.45,2.73
15109.45,3.25
15111.45,3.11
15113.45,3.03
15115.45,2.96
15117.45,3.05
15119.45,3.02
15121.45,3.04
15123.45,3.08
15124.45,3.23
15126.45,3.15
15128.45,3.06
15130.45,2.95
15132.45,2.89
15134.45,2.77
15136.45,2.26
15138.45,2.44
15140.45,2.55
15142.45,2.53
15145.45,2.44
15147.45,2.23
15149.45,2.41
15151.45,2.22
15153.45,2.24
15155.45,2.08
15157.45,1.96
15159.45,1.92
15161.45,1.83
15163.45,1.74
15165.45,1.67
15167.45,1.49
15168.45,1.35
15170.45,1.28
15172.45,1.27
15174.45,1.06
15176.45,0.88
15178.45,0.63
15180.45,0.62
15182.45,0.66
15184.45,0.68
15186.45,0.83
15189.45,0.9
15191.45,0.84
15193.45,0.8
15195.45,0.75
15197.45,0.61
15199.45,0.91
15201.45,0.82
15203.45,0.86
15205.45,0.81
15207.45,0.91
15209.45,1.13
15210.45,0.87
15212.45,0.0
15214.45,0.0
15216.45,0.0
15218.45,0.0
15220.45,0.0
15222.45,0.0
15224.45,0.0
15226.45,0.0
15228.45,0.0
15231.45,0.0
15233.45,0.0
15235.45,0.0
15237.45,0.0
15239.45,0.0
15241.45,0.0
15243.45,0.0
15245.45,0.0
15247.45,0.0
15249.45,0.0
15251.45,0.0
15253.45,0.0
15254.45,0.0
15256.45,0.0
15258.45,0.0
15260.45,0.0
15262.45,0.0
15264.45,0.0
15266.45,0.0
15268.45,0.0
15270.45,0.0
15273.45,0.0
15275.45,0.0
15277.45,0.0
15279.45,0.0
15281.45,0.0
15283.45,0.0
15285.45,0.0
15287.45,0.0
15289.45,0.16
15291.45,0.22
15293.45,0.2
15295.45,0.39
15296.45,0.61
15298.45,0.76
15300.45,0.89
15302.45,1.04
15304.45,1.36
15306.45,1.53
15308.45,1.64
15310.45,1.51
15312.45,1.62
15314.45,1.86
15317.45,1.96
15319.45,2.15
15321.45,2.25
15323.45,2.36
15325.45,2.35
15327.45,2.34
15329.45,2.29
15331.45,2.14
15333.45,2.31
15335.45,2.4
15337.45,2.16
15338.45,2.07
15340.45,2.01
15342.45,2.08
15344.45,2.03
15346.45,2.04
15348.45,2.13
15350.45,2.07
15352.45,2.02
15354.45,2.09
15356.45,2.28
15359.45,2.31
15361.45,2.41
15363.45,2.45
15365.45,2.41
15367.45,2.25
15369.45,2.24
15371.45,2.14
15373.45,2.2
15375.45,2.1
15377.45,1.94
15379.45,1.79
15381.45,1.82
15382.45,1.88
15384.45,2.03
15386.45,1.86
15388.45,1.81
15390.45,1.57
15392.45,1.43
15394.45,1.51
15396.45,1.51
15398.45,1.53
15401.45,1.48
15403.45,1.49
15405.45,1.49
15407.45,1.53
15409.45,1.5
15411.45,1.37
15413.45,1.28
15415.45,1.44
15417.45,1.45
15419.45,1.5
15421.45,1.42
15423.45,1.53
15424.45,1.57
15426.45,1.5
15428.45,1.44
15430.45,1.41
15432.45,1.49
15434.45,1.49
15436.45,1.54
15438.45,1.66
15440.45,1.66
15442.45,1.86
15445.45,1.91
15447.45,1.79
15449.45,1.75
15451.45,1.6
15453.45,1.56
15455.45,1.63
15457.45,1.69
15459.45,1.69
15461.45,1.64
15463.45,1.77
15465.45,1.87
15466.45,1.83
15468.45,1.83
15470.45,1.72
15472.45,1.72
15474.45,1.74
15476.45,1.75
15478.45,1.75
15480.45,1.72
15482.45,1.71
15484.45,1.69
15487.45,1.71
15489.45,1.69
15491.45,1.59
15493.45,1.71
15495.45,1.76
15497.45,1.78
15499.45,1.84
15501.45,1.84
15503.45,1.85
15505.45,1.88
15507.45,1.76
15509.45,1.67
15510.45,1.56
15512.45,1.6
15514.45,1.66
15516.45,1.66
15518.45,1.81
15520.45,1.84
15522.45,1.88
15524.45,1.85
15526.45,1.78
15529.45,1.71
15531.45,1.63
15533.45,1.67
15535.45,1.71
15537.45,1.8
15539.45,1.73
15541.45,1.72
15543.45,1.81
15545.45,1.89
15547.45,1.84
15549.45,1.83
15551.45,1.72
15552.45,1.72
15554.45,1.74
15556.45,1.79
15558.45,1.82
15560.45,1.83
15562.45,1.85
15564.45,1.88
15566.45,1.76
15568.45,1.64
15570.45,1.48
15573.45,1.52
15575.45,1.56
15577.45,1.51
15579.45,1.55
15581.45,1.46
15583.45,1.49
15585.45,1.52
15587.45,1.55
15589.45,1.43
15591.45,1.39
15593.45,1.54
15594.45,1.53
15596.45,1.6
15598.45,1.63
15600.45,1.74
15602.45,1.84
15604.45,1.87
15606.45,1.78
15608.45,1.81
15610.45,1.67
15612.45,1.71
15615.45,1.74
15617.45,1.75
15619.45,1.78
15621.45,1.76
15623.45,1.85
15625.45,1.79
15627.45,1.73
15629.45,1.75
15631.45,1.57
15633.45,1.61
15635.45,1.61
15637.45,1.63
15638.45,1.73
15640.45,1.68
15642.45,1.72
15644.45,1.72
15646.45,1.73
15648.45,1.64
15650.45,1.55
15652.45,1.57
15654.45,1.6
15657.45,1.63
15659.45,1.64
15661.45,1.61
15663.45,1.67
15665.45,1.68
15667.45,1.6
15669.45,1.62
15671.45,1.51
15673.45,1.56
15675.45,1.56
15677.45,1.58
15679.45,1.6
15680.45,1.63
15682.45,1.74
15684.45,1.72
15686.45,1.59
15688.45,1.66
15690.45,1.54
15692.45,1.5
15694.45,1.54
15696.45,1.56
15698.45,1.65
15701.45,1.6
15703.45,1.67
15705.45,1.73
15707.45,1.77
15709.45,1.63
15711.45,1.54
15713.45,1.62
15715.45,1.65
15717.45,1.6
15719.45,1.65
15721.45,1.64
15722.45,1.71
15724.45,1.66
15726.45,1.65
15728.45,1.56
15730.45,1.43
15732.45,1.5
15734.45,1.48
15736.45,1.46
15738.45,1.52
15740.45,1.49
15743.45,1.61
15745.45,1.62
15747.45,1.63
15749.45,1.58
15751.45,1.47
15753.45,1.48
15755.45,1.51
15757.45,1.52
15759.45,1.58
15761.45,1.58
15763.45,1.64
15765.45,1.61
15766.45,1.54
15768.45,1.54
15770.45,1.44
15772.45,1.48
15774.45,1.44
15776.45,1.44
15778.45,1.46
15780.45,1.51
15782.45,1.62
15785.45,1.58
15787.45,1.63
15789.45,1.59
15791.45,1.41
15793.45,1.46
15795.45,1.49
15797.45,1.44
15799.45,1.49
15801.45,1.52
15803.45,1.6
15805.45,1.65
15807.45,1.67
15808.45,1.57
15810.45,1.48
15812.45,1.51
15814.45,1.54
15816.45,1.6
15818.45,1.71
15820.45,1.59
15822.45,1.7
15824.45,1.7
15826.45,1.61
15829.45,1.55
15831.45,1.57
15833.45,1.67
15835.45,1.61
15837.45,1.67
15839.45,1.68
15841.45,1.66
15843.45,1.74
15845.45,1.81
15847.45,1.66
15849.45,1.73
15850.45,1.61
15852.45,1.68
15854.45,1.74
15856.45,1.78
15858.45,1.8
15860.45,1.84
15862.45,1.92
15864.45,1.95
15866.45,1.76
15868.45,1.84
15871.45,1.76
15873.45,1.83
15875.45,1.89
15877.45,1.88
15879.45,1.81
15881.45,1.83
15883.45,1.91
15885.45,1.71
15887.45,1.93
15889.45,1.84
15891.45,1.67
15893.45,1.7
15894.45,1.55
15896.45,1.6
15898.45,1.75
15900.45,1.69
15902.45,1.75
15904.45,1.85
15906.45,1.83
15908.45,1.68
15910.45,1.58
15913.45,1.62
15915.45,1.72
15917.45,1.56
15919.45,1.43
15921.45,1.34
15923.45,1.56
15925.45,1.76
15927.45,1.66
15929.45,1.64
15931.45,1.48
15933.45,1.6
15935.45,1.75
15936.45,1.7
15938.45,1.79
15940.45,1.72
15942.45,1.55
15944.45,1.77
15946.45,1.84
15948.45,1.78
15950.45,1.41
15952.45,1.37
15954.45,1.65
15957.45,1.66
15959.45,1.68
15961.45,1.64
15963.45,1.72
15965.45,1.9
15967.45,1.78
15969.45,1.59
15971.45,1.37
15973.45,1.55
15975.45,1.49
15977.45,1.47
15978.45,1.65
15980.45,1.63
15982.45,1.55
15984.45,1.65
15986.45,1.5
15988.45,1.71
15990.45,1.61
15992.45,1.53
15994.45,1.42
15996.45,1.47
15999.45,1.52
16001.45,1.52
16003.45,1.66
16005.45,1.37
16007.45,1.2
16009.45,1.35
16011.45,1.23
16013.45,1.19
16015.45,1.08
16017.45,0.99
16019.45,1.05
16021.45,0.74
16022.45,0.94
16024.45,0.82
16026.45,0.76
16028.45,0.8
16030.45,0.6
16032.45,0.67
16034.45,0.56
16036.45,0.37
16038.45,0.36
16041.45,0.17
16043.45,0.3
16045.45,0.08
16047.45,0.0
16049.45,0.0
16051.45,0.0
16053.45,0.0
16055.45,0.0
16057.45,0.0
16059.45,0.0
16061.45,0.0
16063.45,0.0
16064.45,0.0
16066.45,0.0
16068.45,0.0
16070.45,0.0
16072.45,0.0
16074.45,0.0
16076.45,0.0
16078.45,0.0
16080.45,0.0
16082.45,0.0
16085.45,0.0
16087.45,0.0
16089.45,0.0
16091.45,0.0
16093.45,0.0
16095.45,0.0
16097.45,0.0
16099.45,0.0
16101.45,0.0
16103.45,0.0
16105.45,0.0
16106.45,0.0
16108.45,0.0
16110.45,0.0
16112.45,0.0
16114.45,0.0
16116.45,0.0
16118.45,0.0
16120.45,0.0
16122.45,0.0
16124.45,0.0
16127.45,0.0
16129.45,0.0
16131.45,0.0
16133.45,0.0
16135.45,0.0
16137.45,0.0
16139.45,0.0
16141.45,0.0
16143.45,0.0
16145.45,0.0
16147.45,0.0
16149.45,0.0
16150.45,0.0
16152.45,0.0
16154.45,0.0
16156.45,0.0
16158.45,0.0
16160.45,0.0
16162.45,0.0
16164.45,0.01
16166.45,0.0
16169.45,0.0
16171.45,0.0
16173.45,0.0
16175.45,0.0
16177.45,0.01
16179.45,0.05
16181.45,0.31
16183.45,0.66
16185.45,0.78
16187.45,0.65
16189.45,0.68
16191.45,0.64
16192.45,0.72
16194.45,1.04
16196.45,1.35
16198.45,1.56
16200.45,1.61
16202.45,1.76
16204.45,1.58
16206.45,1.5
16208.45,1.55
16210.45,0.93
16213.45,0.5
16215.45,0.85
16217.45,0.87
16219.45,0.93
16221.45,1.39
16223.45,1.44
16225.45,1.49
16227.45,1.53
16229.45,1.63
16231.45,1.5
16233.45,1.52
16234.45,1.52
16236.45,1.44
16238.45,1.88
16240.45,1.86
16242.45,1.86
16244.45,1.84
16246.45,1.81
16248.45,1.89
16250.45,1.82
16252.45,1.78
16255.45,1.95
16257.45,2.29
16259.45,2.46
16261.45,2.72
16263.45,2.99
16265.45,2.98
16267.45,2.85
16269.45,2.39
16271.45,1.99
16273.45,2.3
16275.45,2.24
16277.45,2.17
16278.45,2.06
16280.45,1.99
16282.45,2.3
16284.45,2.25
16286.45,2.33
16288.45,2.51
16290.45,2.46
16292.45,2.58
16294.45,2.6
16297.45,2.55
16299.45,2.52
16301.45,2.25
16303.45,2.42
16305.45,2.46
16307.45,2.59
16309.45,2.59
16311.45,2.45
16313.45,2.39
16315.45,2.53
16317.45,2.5
16319.45,2.62
16320.45,2.58
16322.45,2.62
16324.45,1.91
16326.45,1.72
16328.45,1.72
16330.45,1.62
16332.45,1.73
16334.45,1.79
16336.45,1.75
16338.45,1.7
16341.45,1.74
16343.45,1.76
16345.45,1.63
16347.45,1.72
16349.45,1.82
16351.45,1.76
16353.45,1.77
16355.45,1.75
16357.45,1.71
16359.45,1.8
16361.45,1.91
16362.45,2.1
16364.45,2.21
16366.45,2.35
16368.45,2.39
16370.45,2.44
16372.45,2.49
16374.45,2.68
16376.45,2.85
16378.45,2.93
16380.45,3.01
16383.45,3.24
16385.45,3.3
16387.45,3.3
16389.45,3.3
16391.45,3.3
16393.45,3.3
16395.45,3.3
16397.45,3.3
16399.45,3.3
16401.45,3.3
16403.45,3.3
16405.45,3.3
16406.45,3.3
16408.45,3.3
16410.45,3.3
16412.45,3.3
16414.45,3.3
16416.45,3.3
16418.45,3.3
16420.45,3.3
16422.45,3.3
16425.45,3.3
16427.45,3.3
16429.45,3.3
16431.45,3.3
16433.45,3.3
16435.45,3.3
16437.45,3.3
16439.45,3.3
16441.45,3.3
16443.45,3.3
16445.45,3.3
16447.45,3.3
16448.45,3.3
16450.45,3.3
16452.45,3.3
16454.45,3.3
16456.45,3.3
16458.45,3.3
16460.45,3.3
16462.45,3.3
16464.45,3.3
16466.45,3.3
16469.45,3.3
16471.45,3.3
16473.45,3.3
16475.45,3.3
16477.45,3.3
16479.45,3.3
16481.45,3.3
16483.45,3.29
16485.45,3.18
16487.45,3.18
16489.45,3.04
16490.45,2.87
16492.45,2.75
16494.45,2.72
16496.45,2.75
16498.45,2.73
16500.45,2.68
16502.45,2.61
16504.45,2.48
16506.45,2.41
16508.45,2.35
16511.45,2.25
16513.45,2.33
16515.45,2.29
16517.45,2.18
16519.45,2.19
16521.45,2.19
16523.45,2.19
16525.45,2.15
16527.45,2.04
16529.45,1.88
16531.45,1.79
16533.45,1.7
16534.45,1.75
16536.45,1.8
16538.45,1.78
16540.45,1.72
16542.45,1.66
16544.45,1.61
16546.45,1.5
16548.45,1.32
16550.45,1.24
16553.45,1.11
16555.45,1.13
16557.45,1.15
16559.45,1.1
16561.45,1.04
16563.45,1.09
16565.45,0.96
16567.45,0.86
16569.45,0.76
16571.45,0.7
16573.45,0.75
16575.45,0.73
16576.45,0.83
16578.45,0.97
16580.45,1.01
16582.45,1.04
16584.45,0.92
16586.45,0.89
16588.45,0.87
16590.45,0.83
16592.45,0.86
16594.45,0.77
16597.45,0.77
16599.45,0.77
16601.45,0.76
16603.45,0.81
16605.45,0.89
16607.45,0.9
16609.45,0.85
16611.45,0.75
16613.45,0.81
16615.45,0.77
16617.45,0.79
16618.45,0.76
16620.45,0.73
16622.45,0.83
16624.45,0.76
16626.45,0.78
16628.45,0.75
16630.45,0.81
16632.45,0.94
16634.45,0.95
16636.45,1.02
16639.45,1.06
16641.45,1.07
16643.45,1.17
16645.45,1.13
16647.45,1.15
16649.45,1.12
16651.45,1.06
16653.45,1.07
16655.45,1.13
16657.45,1.19
16659.45,1.15
16661.45,1.15
16662.45,1.2
16664.45,1.15
16666.45,1.14
16668.45,1.02
16670.45,1.0
16672.45,1.17
16674.45,1.19
16676.45,1.15
16678.45,1.13
16681.45,1.09
16683.45,1.14
16685.45,1.1
16687.45,1.11
16689.45,0.95
16691.45,0.95
16693.45,0.99
16695.45,0.93
16697.45,1.05
16699.45,1.09
16701.45,1.05
16703.45,1.16
16704.45,1.16
16706.45,1.06
16708.45,1.01
16710.45,0.99
16712.45,1.04
16714.45,1.12
16716.45,1.21
16718.45,1.27
16720.45,1.34
16722.45,1.43
16725.45,1.39
16727.45,1.35
16729.45,1.27
16731.45,1.24
16733.45,1.28
16735.45,1.27
16737.45,1.34
16739.45,1.37
16741.45,1.44
16743.45,1.34
16745.45,1.24
16746.45,1.17
16748.45,1.07
16750.45,1.03
16752.45,1.1
16754.45,1.04
16756.45,1.03
16758.45,1.09
16760.45,1.12
16762.45,1.11
16764.45,1.1
16767.45,1.03
16769.45,0.95
16771.45,0.98
16773.45,1.02
16775.45,1.01
16777.45,1.1
16779.45,1.15
16781.45,1.14
16783.45,1.23
16785.45,1.27
16787.45,1.21
16789.45,1.2
16790.45,1.22
16792.45,1.21
16794.45,1.37
16796.45,1.43
16798.45,1.37
16800.45,1.38
16802.45,1.44
16804.45,1.45
16806.45,1.39
16809.45,1.26
16811.45,1.25
16813.45,1.32
16815.45,1.35
16817.45,1.33
16819.45,1.34
16821.45,1.37
16823.45,1.42
16825.45,1.36
16827.45,1.32
16829.45,1.21
16831.45,1.21
16832.45,1.18
16834.45,1.24
16836.45,1.23
16838.45,1.22
16840.45,1.31
16842.45,1.24
16844.45,1.12
16846.45,1.09
16848.45,1.0
16850.45,1.01
16853.45,1.02
16855.45,1.05
16857.45,1.11
16859.45,1.07
16861.45,1.15
16863.45,1.2
16865.45,1.17
16867.45,1.1
16869.45,1.0
16871.45,1.04
16873.45,1.03
16874.45,0.98
16876.45,1.03
16878.45,0.96
16880.45,0.98
16882.45,0.96
16884.45,0.96
16886.45,0.89
16888.45,0.81
16890.45,0.84
16892.45,0.98
16895.45,1.02
16897.45,1.07
16899.45,1.05
16901.45,1.07
16903.45,1.11
16905.45,1.13
16907.45,1.13
16909.45,1.05
16911.45,1.1
16913.45,1.2
16915.45,1.32
16917.45,1.32
16918.45,1.32
16920.45,1.38
16922.45,1.37
16924.45,1.38
16926.45,1.32
16928.45,1.24
16930.45,1.34
16932.45,1.34
16934.45,1.35
16937.45,1.42
16939.45,1.53
16941.45,1.42
16943.45,1.61
16945.45,1.64
16947.45,1.67
16949.45,1.53
16951.45,1.45
16953.45,1.53
16955.45,1.58
16957.45,1.63
16959.45,1.65
16960.45,1.7
16962.45,1.87
16964.45,1.82
16966.45,1.69
16968.45,1.76
16970.45,1.84
16972.45,2.0
16974.45,2.08
16976.45,1.91
16978.45,1.82
16981.45,1.84
16983.45,1.95
16985.45,1.85
16987.45,1.83
16989.45,1.67
16991.45,1.35
16993.45,1.61
16995.45,1.72
16997.45,1.74
16999.45,1.87
17001.45,1.9
17002.45,1.89
17004.45,1.82
17006.45,1.82
17008.45,1.7
17010.45,1.68
17012.45,1.81
17014.45,1.61
17016.45,1.74
17018.45,1.85
17020.45,1.95
17023.45,2.09
17025.45,2.17
17027.45,2.22
17029.45,2.25
17031.45,2.22
17033.45,2.07
17035.45,2.26
17037.45,2.28
17039.45,2.21
17041.45,2.42
17043.45,2.16
17045.45,2.11
17046.45,2.1
17048.45,1.98
17050.45,2.08
17052.45,1.85
17054.45,1.72
17056.45,1.61
17058.45,1.46
17060.45,1.57
17062.45,1.5
17065.45,1.39
17067.45,1.55
17069.45,1.36
17071.45,1.3
17073.45,1.23
17075.45,1.21
17077.45,1.2
17079.45,1.19
17081.45,1.25
17083.45,1.45
17085.45,1.13
17087.45,1.28
17088.45,1.09
17090.45,0.92
17092.45,0.87
17094.45,0.93
17096.45,1.15
17098.45,1.09
17100.45,1.16
17102.45,1.13
17104.45,1.22
17106.45,1.32
17109.45,1.14
17111.45,1.09
17113.45,1.17
17115.45,1.22
17117.45,1.64
17119.45,2.31
17121.45,2.64
17123.45,2.72
17125.45,2.95
17127.45,3.16
17129.45,2.75
17131.45,2.59
17132.45,2.36
17134.45,2.0
17136.45,2.22
17138.45,2.01
17140.45,1.87
17142.45,1.69
17144.45,1.61
17146.45,1.67
17148.45,1.63
17151.45,1.55
17153.45,1.6
17155.45,1.38
17157.45,1.55
17159.45,1.44
17161.45,1.45
17163.45,1.51
17165.45,1.5
17167.45,1.45
17169.45,1.31
17171.45,1.43
17173.45,1.38
17174.45,1.35
17176.45,1.41
17178.45,1.25
17180.45,1.32
17182.45,1.48
17184.45,1.48
17186.45,1.05
17188.45,1.12
17190.45,1.43
17193.45,1.29
17195.45,1.24
17197.45,1.29
17199.45,1.17
17201.45,1.22
17203.45,1.38
17205.45,1.33
17207.45,1.33
17209.45,1.24
17211.45,1.11
17213.45,1.15
17215.45,1.16
17216.45,1.2
17218.45,1.24
17220.45,1.28
17222.45,1.27
17224.45,1.26
17226.45,1.23
17228.45,1.12
17230.45,1.15
17232.45,1.18
17234.45,1.07
17237.45,1.08
17239.45,0.84
17241.45,1.34
17243.45,1.48
17245.45,1.42
17247.45,1.34
17249.45,1.22
17251.45,1.22
17253.45,1.23
17255.45,1.25
17257.45,1.3
17259.45,1.28
17260.45,1.28
17262.45,1.48
17264.45,1.37
17266.45,1.32
17268.45,1.18
17270.45,1.16
17272.45,1.15
17274.45,1.24
17276.45,1.28
17279.45,1.31
17281.45,1.29
17283.45,1.31
17285.45,1.29
17287.45,1.27
17289.45,1.12
17291.45,1.2
17293.45,1.2
17295.45,1.19
17297.45,1.36
17299.45,1.3
17301.45,1.36
17302.45,1.38
17304.45,1.32
17306.45,1.37
17308.45,1.22
17310.45,1.15
17312.45,1.17
17314.45,1.2
17316.45,1.17
17318.45,1.05
17321.45,1.13
17323.45,1.12
17325.45,1.03
17327.45,1.03
17329.45,0.92
17331.45,1.02
17333.45,0.98
17335.45,0.9
17337.45,0.98
17339.45,0.96
17341.45,1.01
17343.45,1.05
17344.45,1.01
17346.45,1.06
17348.45,0.94
17350.45,1.07
17352.45,1.16
17354.45,1.19
17356.45,1.25
17358.45,1.28
17360.45,1.37
17362.45,1.5
17365.45,1.44
17367.45,1.37
17369.45,1.26
17371.45,1.25
17373.45,1.22
17375.45,0.76
17377.45,0.71
17379.45,0.81
17381.45,1.07
17383.45,1.08
17385.45,1.14
17387.45,1.1
17388.45,1.0
17390.45,1.02
17392.45,1.14
17394.45,1.13
17396.45,1.15
17398.45,1.08
17400.45,1.21
17402.45,1.24
17404.45,1.29
17407.45,1.39
17409.45,1.43
17411.45,1.48
17413.45,1.51
17415.45,1.55
17417.45,1.54
17419.45,1.45
17421.45,1.45
17423.45,1.28
17425.45,1.2
17427.45,1.17
17429.45,1.14
17430.45,1.18
17432.45,1.19
17434.45,1.21
17436.45,1.25
17438.45,1.2
17440.45,1.32
17442.45,1.32
17444.45,1.23
17446.45,1.27
17449.45,1.21
17451.45,1.23
17453.45,1.22
17455.45,1.22
17457.45,1.23
17459.45,1.21
17461.45,1.25
17463.45,1.23
17465.45,1.27
17467.45,1.19
17469.45,1.08
17471.45,1.1
17472.45,1.14
17474.45,1.16
17476.45,1.25
17478.45,1.26
17480.45,1.37
17482.45,1.34
17484.45,1.35
17486.45,1.35
17488.45,1.28
17490.45,1.41
17493.45,1.5
17495.45,1.55
17497.45,1.69
17499.45,1.73
17501.45,1.83
17503.45,1.85
17505.45,1.79
17507.45,1.77
17509.45,1.64
17511.45,1.63
17513.45,1.62
17515.45,1.68
17516.45,1.69
17518.45,1.65
17520.45,1.76
17522.45,1.74
17524.45,1.6
17526.45,1.64
17528.45,1.54
17530.45,1.54
17532.45,1.55
17535.45,1.57
17537.45,1.58
17539.45,1.55
17541.45,1.66
17543.45,1.6
17545.45,1.62
17547.45,1.68
17549.45,1.53
17551.45,1.61
17553.45,1.64
17555.45,1.59
17557.45,1.66
17558.45,1.65
17560.45,1.8
17562.45,1.85
17564.45,1.82
17566.45,1.73
17568.45,1.66
17570.45,1.71
17572.45,1.65
17574.45,1.58
17577.45,1.61
17579.45,1.59
17581.45,1.59
17583.45,1.57
17585.45,1.56
17587.45,1.51
17589.45,1.34
17591.45,1.35
17593.45,1.34
17595.45,1.42
17597.45,1.5
17599.45,1.46
17601.45,1.6
17602.45,1.6
17604.45,1.61
17606.45,1.56
17608.45,1.45
17610.45,1.47
17612.45,1.48
17614.45,1.47
17616.45,1.5
17618.45,1.53
17621.45,1.66
17623.45,1.6
17625.45,1.57
17627.45,1.56
17629.45,1.44
17631.45,1.45
17633.45,1.46
17635.45,1.45
17637.45,1.54
17639.45,1.49
17641.45,1.57
17643.45,1.51
17644.45,1.49
17646.45,1.44
17648.45,1.27
17650.45,1.34
17652.45,1.36
17654.45,1.37
17656.45,1.42
17658.45,1.43
17660.45,1.5
17663.45,1.57
17665.45,1.5
17667.45,1.41
17669.45,1.31
17671.45,1.36
17673.45,1.4
17675.45,1.45
17677.45,1.47
17679.45,1.45
17681.45,1.53
17683.45,1.53
17685.45,1.5
17686.45,1.39
17688.45,1.23
17690.45,1.31
17692.45,1.31
17694.45,1.43
17696.45,1.44
17698.45,1.44
17700.45,1.59
17702.45,1.66
17705.45,1.7
17707.45,1.65
17709.45,1.51
17711.45,1.56
17713.45,1.55
17715.45,1.53
17717.45,1.49
17719.45,1.46
17721.45,1.57
17723.45,1.51
17725.45,1.46
17727.45,1.38
17729.45,1.29
17730.45,1.38
17732.45,1.37
17734.45,1.36
17736.45,1.4
17738.45,1.41
17740.45,1.53
17742.45,1.52
17744.45,1.51
17746.45,1.45
17749.45,1.33
17751.45,1.4
17753.45,1.41
17755.45,1.49
17757.45,1.5
17759.45,1.48
17761.45,1.57
17763.45,1.63
17765.45,1.57
17767.45,1.53
17769.45,1.35
17771.45,1.37
17772.45,1.35
17774.45,1.33
17776.45,1.35
17778.45,1.34
17780.45,1.46
17782.45,1.37
17784.45,1.22
17786.45,1.24
17788.45,1.17
17791.45,1.22
17793.45,1.27
17795.45,1.27
17797.45,1.33
17799.45,1.3
17801.45,1.4
17803.45,1.44
17805.45,1.47
17807.45,1.37
17809.45,1.25
17811.45,1.31
17813.45,1.38
17814.45,1.38
17816.45,1.44
17818.45,1.42
17820.45,1.51
17822.45,1.54
17824.45,1.45
17826.45,1.4
17828.45,1.36
17830.45,1.5
17833.45,1.45
17835.45,1.5
17837.45,1.59
17839.45,1.55
17841.45,1.61
17843.45,1.63
17845.45,1.53
17847.45,1.57
17849.45,1.44
17851.45,1.58
17853.45,1.7
17855.45,1.74
17857.45,1.78
17858.45,1.81
17860.45,1.91
17862.45,1.92
17864.45,1.87
17866.45,1.79
17868.45,1.72
17870.45,1.78
17872.45,1.7
17874.45,1.71
17877.45,1.72
17879.45,1.74
17881.45,1.92
17883.45,1.93
17885.45,1.99
17887.45,1.89
17889.45,1.78
17891.45,1.88
17893.45,1.81
17895.45,1.61
17897.45,1.84
17899.45,1.94
17900.45,2.1
17902.45,1.98
17904.45,1.95
17906.45,1.83
17908.45,1.78
17910.45,1.78
17912.45,1.87
17914.45,1.92
17916.45,1.86
17919.45,1.81
17921.45,1.83
17923.45,1.81
17925.45,1.87
17927.45,1.74
17929.45,1.66
17931.45,1.68
17933.45,1.6
17935.45,1.75
17937.45,1.69
17939.45,1.63
17941.45,1.67
17942.45,1.73
17944.45,1.85
17946.45,1.84
17948.45,1.85
17950.45,1.96
17952.45,2.08
17954.45,2.08
17956.45,2.0
17958.45,1.89
17961.45,2.06
17963.45,2.1
17965.45,2.19
17967.45,1.99
17969.45,1.97
17971.45,2.05
17973.45,1.86
17975.45,1.71
17977.45,1.62
17979.45,1.85
17981.45,1.88
17983.45,1.75
17985.45,1.94
17986.45,1.84
17988.45,1.73
17990.45,1.64
17992.45,1.84
17994.45,1.86
17996.45,1.89
17998.45,1.9
18000.45,1.88
18002.45,1.82
18005.45,1.42
18007.45,1.74
18009.45,1.61
18011.45,1.52
18013.45,1.37
18015.45,1.71
18017.45,1.63
18019.45,1.6
18021.45,1.9
18023.45,1.83
18025.45,1.71
18027.45,1.47
18028.45,1.61
18030.45,1.58
18032.45,1.52
18034.45,1.2
18036.45,1.23
18038.45,1.31
18040.45,1.22
18042.45,1.19
18044.45,1.05
18047.45,0.85
18049.45,0.68
18051.45,0.88
18053.45,0.82
18055.45,0.71
18057.45,0.47
18059.45,0.75
18061.45,0.56
18063.45,0.33
18065.45,0.09
18067.45,0.51
18069.45,0.36
18071.45,0.35
18072.45,0.02
18074.45,0.0
18076.45,0.0
18078.45,0.0
18080.45,0.0
18082.45,0.0
18084.45,0.0
18086.45,0.0
18089.45,0.0
18091.45,0.0
18093.45,0.0
18095.45,0.0
18097.45,0.0
18099.45,0.0
18101.45,0.0
18103.45,0.0
18105.45,0.01
18107.45,0.0
18109.45,0.0
18111.45,0.19
18113.45,0.4
18114.45,0.1
18116.45,0.18
18118.45,0.4
18120.45,0.53
18122.45,0.84
18124.45,1.12
18126.45,1.69
18128.45,2.44
18130.45,3.3
18133.45,3.3
18135.45,3.21
18137.45,2.59
18139.45,2.16
18141.45,1.92
18143.45,1.51
